Time,Sensor 3.IM EMG3
0.00000000000000000000,-0.00002671014408406336
0.00050000000000000001,-0.00002839554508682340
0.00100000000000000002,-0.00002855879938579164
0.00150000000000000003,-0.00002761855284916237
0.00200000000000000004,-0.00002582283195806667
0.00250000000000000005,-0.00002366720764257479
0.00300000000000000006,-0.00002192629108321853
0.00350000000000000007,-0.00002056541416095570
0.00400000000000000008,-0.00001909975071612280
0.00449999999999999966,-0.00001766120658430737
0.00500000000000000010,-0.00001674914346949663
0.00549999999999999968,-0.00001704659916867968
0.00600000000000000012,-0.00001945162694028113
0.00649999999999999970,-0.00002342024527024478
0.00700000000000000015,-0.00002626331843202934
0.00749999999999999972,-0.00002608885006338824
0.00800000000000000017,-0.00002377150303800590
0.00850000000000000061,-0.00002129046697518788
0.00899999999999999932,-0.00001993113255593926
0.00949999999999999976,-0.00001990660712181125
0.01000000000000000021,-0.00002062994462903589
0.01050000000000000065,-0.00002143249730579555
0.01099999999999999936,-0.00002173823304474353
0.01149999999999999981,-0.00002071516246360261
0.01200000000000000025,-0.00001867453283921349
0.01250000000000000069,-0.00001772217729012482
0.01299999999999999940,-0.00001852344939834438
0.01349999999999999985,-0.00001955364496097900
0.01400000000000000029,-0.00002039245191554073
0.01450000000000000074,-0.00002108828266500495
0.01499999999999999944,-0.00002058535028481856
0.01549999999999999989,-0.00001995594357140362
0.01600000000000000033,-0.00002209763079008553
0.01650000000000000078,-0.00002643732295837253
0.01700000000000000122,-0.00002948087058030069
0.01750000000000000167,-0.00002977910844492726
0.01799999999999999864,-0.00002833143116731662
0.01849999999999999908,-0.00002580591899459250
0.01899999999999999953,-0.00002260253495478537
0.01949999999999999997,-0.00002012113691307604
0.02000000000000000042,-0.00001823275124479551
0.02050000000000000086,-0.00001478612557548331
0.02100000000000000130,-0.00001105737646867055
0.02149999999999999828,-0.00001188646183436504
0.02199999999999999872,-0.00001851062188507058
0.02249999999999999917,-0.00002581602348072920
0.02299999999999999961,-0.00002791422048176173
0.02350000000000000006,-0.00002460480027366430
0.02400000000000000050,-0.00001985000380955171
0.02450000000000000094,-0.00001635277112654876
0.02500000000000000139,-0.00001477321075071814
0.02549999999999999836,-0.00001457591952203074
0.02599999999999999881,-0.00001438944036635803
0.02649999999999999925,-0.00001394203991367249
0.02699999999999999969,-0.00001453214827051852
0.02750000000000000014,-0.00001680827335803770
0.02800000000000000058,-0.00001954700564965606
0.02850000000000000103,-0.00002123252488672733
0.02900000000000000147,-0.00002211439641541802
0.02949999999999999845,-0.00002375877011218108
0.02999999999999999889,-0.00002693768146855291
0.03049999999999999933,-0.00003026800186489709
0.03099999999999999978,-0.00003158747858833522
0.03150000000000000022,-0.00003078204099438153
0.03200000000000000067,-0.00002929364381998312
0.03250000000000000111,-0.00002738947659963742
0.03300000000000000155,-0.00002377061719016638
0.03350000000000000200,-0.00001786875145626254
0.03400000000000000244,-0.00001179098308057291
0.03450000000000000289,-0.00000890869796421612
0.03500000000000000333,-0.00001064217394741718
0.03549999999999999684,-0.00001532219175714999
0.03599999999999999728,-0.00001975793202291243
0.03649999999999999772,-0.00002186351775890216
0.03699999999999999817,-0.00002224982199550141
0.03749999999999999861,-0.00002272516940138303
0.03799999999999999906,-0.00002362775194342248
0.03849999999999999950,-0.00002389649489487056
0.03899999999999999994,-0.00002314350604137871
0.03950000000000000039,-0.00002231734106317163
0.04000000000000000083,-0.00002219429006800056
0.04050000000000000128,-0.00002238137312815525
0.04100000000000000172,-0.00002221930844825692
0.04150000000000000216,-0.00002192255305999424
0.04200000000000000261,-0.00002222372131654993
0.04250000000000000305,-0.00002278713691339362
0.04299999999999999656,-0.00002274443795613479
0.04349999999999999700,-0.00002269842843816150
0.04399999999999999745,-0.00002348427551623899
0.04449999999999999789,-0.00002445761492708698
0.04499999999999999833,-0.00002478629903635010
0.04549999999999999878,-0.00002425161801511421
0.04599999999999999922,-0.00002301699714735150
0.04649999999999999967,-0.00002196755849581677
0.04700000000000000011,-0.00002193378350057174
0.04750000000000000056,-0.00002255490653624292
0.04800000000000000100,-0.00002305758971488103
0.04850000000000000144,-0.00002353847412450705
0.04900000000000000189,-0.00002454053174005821
0.04950000000000000233,-0.00002550534736656119
0.05000000000000000278,-0.00002517893517506309
0.05050000000000000322,-0.00002366332046221942
0.05099999999999999672,-0.00002200413837272208
0.05149999999999999717,-0.00002027340633503627
0.05199999999999999761,-0.00001772665746102575
0.05249999999999999806,-0.00001455154688301263
0.05299999999999999850,-0.00001237288961419836
0.05349999999999999895,-0.00001226366839546245
0.05399999999999999939,-0.00001336520654149354
0.05449999999999999983,-0.00001427504957973724
0.05500000000000000028,-0.00001453282129659783
0.05550000000000000072,-0.00001462592899770243
0.05600000000000000117,-0.00001552086359879468
0.05650000000000000161,-0.00001776638237060979
0.05700000000000000205,-0.00002102992220898159
0.05750000000000000250,-0.00002506735472707078
0.05800000000000000294,-0.00002916431549238041
0.05850000000000000339,-0.00003118930180789903
0.05899999999999999689,-0.00003084634226979688
0.05949999999999999734,-0.00003093264240305871
0.05999999999999999778,-0.00003266038766014390
0.06049999999999999822,-0.00003405496681807563
0.06099999999999999867,-0.00003339921750011854
0.06149999999999999911,-0.00003105844007222913
0.06199999999999999956,-0.00002820858207996935
0.06250000000000000000,-0.00002543699883972294
0.06300000000000000044,-0.00002325589775864501
0.06350000000000000089,-0.00002286953713337425
0.06400000000000000133,-0.00002532781581976451
0.06450000000000000178,-0.00003013853893207852
0.06500000000000000222,-0.00003476352867437527
0.06550000000000000266,-0.00003594679583329707
0.06600000000000000311,-0.00003248540087952279
0.06650000000000000355,-0.00002649827547429595
0.06700000000000000400,-0.00002143481106031686
0.06750000000000000444,-0.00001888622318801936
0.06800000000000000488,-0.00001767419053066988
0.06850000000000000533,-0.00001658159817452542
0.06900000000000000577,-0.00001655422056501266
0.06950000000000000622,-0.00001876138776424341
0.07000000000000000666,-0.00002192235297115985
0.07049999999999999323,-0.00002338212652830407
0.07099999999999999367,-0.00002284860784129705
0.07149999999999999412,-0.00002233894338132814
0.07199999999999999456,-0.00002241760194010567
0.07249999999999999500,-0.00002202150972152594
0.07299999999999999545,-0.00002118631891789846
0.07349999999999999589,-0.00002127604420820717
0.07399999999999999634,-0.00002250097350042779
0.07449999999999999678,-0.00002321376632608008
0.07499999999999999722,-0.00002274657890666276
0.07549999999999999767,-0.00002201790812250692
0.07599999999999999811,-0.00002125707214872818
0.07649999999999999856,-0.00002044872235273942
0.07699999999999999900,-0.00002024559944402426
0.07749999999999999944,-0.00002040207436948549
0.07799999999999999989,-0.00001939217872859444
0.07850000000000000033,-0.00001652831269893795
0.07900000000000000078,-0.00001335252818535082
0.07950000000000000122,-0.00001157667065854184
0.08000000000000000167,-0.00001071367751137586
0.08050000000000000211,-0.00000969575103226816
0.08100000000000000255,-0.00000896123128768522
0.08150000000000000300,-0.00000940739028010284
0.08200000000000000344,-0.00001131256067310460
0.08250000000000000389,-0.00001521274680271745
0.08300000000000000433,-0.00002098520053550601
0.08350000000000000477,-0.00002603244683996309
0.08400000000000000522,-0.00002810179466905538
0.08450000000000000566,-0.00002760676579782739
0.08500000000000000611,-0.00002573808160377666
0.08550000000000000655,-0.00002374175164732151
0.08599999999999999312,-0.00002212449362559710
0.08649999999999999356,-0.00002032140218943823
0.08699999999999999400,-0.00001925153992488049
0.08749999999999999445,-0.00002028022936428897
0.08799999999999999489,-0.00002225824937340803
0.08849999999999999534,-0.00002370963557041250
0.08899999999999999578,-0.00002475305882398970
0.08949999999999999623,-0.00002511279126338195
0.08999999999999999667,-0.00002350180511712097
0.09049999999999999711,-0.00001992112447624095
0.09099999999999999756,-0.00001688613338046707
0.09149999999999999800,-0.00001665177842369303
0.09199999999999999845,-0.00001842574602051172
0.09249999999999999889,-0.00001997604158532340
0.09299999999999999933,-0.00002047161797236186
0.09349999999999999978,-0.00002081491948047187
0.09400000000000000022,-0.00002200844755861908
0.09450000000000000067,-0.00002393369140918366
0.09500000000000000111,-0.00002575936923676636
0.09550000000000000155,-0.00002692467023734934
0.09600000000000000200,-0.00002729606239881832
0.09650000000000000244,-0.00002640308048285078
0.09700000000000000289,-0.00002376939664827660
0.09750000000000000333,-0.00002035104262176901
0.09800000000000000377,-0.00001797513505152892
0.09850000000000000422,-0.00001754051663738210
0.09900000000000000466,-0.00001872258508228697
0.09950000000000000511,-0.00002051697083516046
0.10000000000000000555,-0.00002227555705758277
0.10050000000000000600,-0.00002483108801243361
0.10100000000000000644,-0.00002892707379942295
0.10150000000000000688,-0.00003280721648479812
0.10199999999999999345,-0.00003371519778738730
0.10249999999999999389,-0.00003150664633722045
0.10299999999999999434,-0.00002897553895309101
0.10349999999999999478,-0.00002825929004757199
0.10399999999999999523,-0.00002852786565199494
0.10449999999999999567,-0.00002757703987299465
0.10499999999999999611,-0.00002442214827169664
0.10549999999999999656,-0.00002029127244895789
0.10599999999999999700,-0.00001723739296721760
0.10649999999999999745,-0.00001582006188982632
0.10699999999999999789,-0.00001499050722486572
0.10749999999999999833,-0.00001429895564797334
0.10799999999999999878,-0.00001479585534980288
0.10849999999999999922,-0.00001726200753182638
0.10899999999999999967,-0.00002084025254589505
0.10950000000000000011,-0.00002464347198838368
0.11000000000000000056,-0.00002884311106754467
0.11050000000000000100,-0.00003270274828537367
0.11100000000000000144,-0.00003486545028863475
0.11150000000000000189,-0.00003509024099912494
0.11200000000000000233,-0.00003264199403929524
0.11250000000000000278,-0.00002634582779137418
0.11300000000000000322,-0.00001819017052184790
0.11350000000000000366,-0.00001313531811319990
0.11400000000000000411,-0.00001432394037692575
0.11450000000000000455,-0.00002028768176387529
0.11500000000000000500,-0.00002647247310960665
0.11550000000000000544,-0.00002897934245993383
0.11600000000000000588,-0.00002738604052865412
0.11650000000000000633,-0.00002408757973171305
0.11700000000000000677,-0.00002139359094144311
0.11749999999999999334,-0.00001984268601518124
0.11799999999999999378,-0.00001881512798718177
0.11849999999999999423,-0.00001805105239327531
0.11899999999999999467,-0.00001792942384781782
0.11949999999999999512,-0.00001807973967515863
0.11999999999999999556,-0.00001730180701997597
0.12049999999999999600,-0.00001535521369078197
0.12099999999999999645,-0.00001347986017208314
0.12149999999999999689,-0.00001302632972510764
0.12199999999999999734,-0.00001409174274158431
0.12249999999999999778,-0.00001595727735548280
0.12299999999999999822,-0.00001832144516811240
0.12349999999999999867,-0.00002039914943452459
0.12399999999999999911,-0.00002098836375807878
0.12449999999999999956,-0.00002089849658659659
0.12500000000000000000,-0.00002129255881300196
0.12550000000000000044,-0.00002185593621106818
0.12600000000000000089,-0.00002329053859284613
0.12650000000000000133,-0.00002584258072602097
0.12700000000000000178,-0.00002715883056225721
0.12750000000000000222,-0.00002626050809340086
0.12800000000000000266,-0.00002510255217202939
0.12850000000000000311,-0.00002503606992831919
0.12900000000000000355,-0.00002512058745196555
0.12950000000000000400,-0.00002389160545135383
0.13000000000000000444,-0.00002115874303854070
0.13050000000000000488,-0.00001751424497342668
0.13100000000000000533,-0.00001404823160555679
0.13150000000000000577,-0.00001267884908884298
0.13200000000000000622,-0.00001367680761177326
0.13250000000000000666,-0.00001449149294785457
0.13300000000000000711,-0.00001364873969578184
0.13350000000000000755,-0.00001286180668103043
0.13400000000000000799,-0.00001402385805704398
0.13450000000000000844,-0.00001634266300243326
0.13500000000000000888,-0.00001761463499860838
0.13550000000000000933,-0.00001734850047796499
0.13600000000000000977,-0.00001685196366452146
0.13650000000000001021,-0.00001713316669338383
0.13700000000000001066,-0.00001790555506886449
0.13750000000000001110,-0.00001813995550037362
0.13800000000000001155,-0.00001763044929248281
0.13850000000000001199,-0.00001741661253618076
0.13900000000000001243,-0.00001812376285670325
0.13950000000000001288,-0.00001912315565277822
0.14000000000000001332,-0.00001980702108994592
0.14050000000000001377,-0.00002030595715041272
0.14099999999999998646,-0.00002074738404189702
0.14149999999999998690,-0.00002108866283379029
0.14199999999999998734,-0.00002141273580491543
0.14249999999999998779,-0.00002176834823330864
0.14299999999999998823,-0.00002257549567730166
0.14349999999999998868,-0.00002441549440845847
0.14399999999999998912,-0.00002612673415569589
0.14449999999999998956,-0.00002618734652060084
0.14499999999999999001,-0.00002627854701131582
0.14549999999999999045,-0.00002837861939042341
0.14599999999999999090,-0.00003074021515203640
0.14649999999999999134,-0.00003107656084466726
0.14699999999999999178,-0.00002964360646728892
0.14749999999999999223,-0.00002754965316853486
0.14799999999999999267,-0.00002511861202947330
0.14849999999999999312,-0.00002262346242787316
0.14899999999999999356,-0.00002109624256263487
0.14949999999999999400,-0.00001974625229195226
0.14999999999999999445,-0.00001507551587565104
0.15049999999999999489,-0.00000828852171252947
0.15099999999999999534,-0.00000660953810438514
0.15149999999999999578,-0.00001174460248876130
0.15199999999999999623,-0.00001797653931134846
0.15249999999999999667,-0.00002159197902074084
0.15299999999999999711,-0.00002251545265608002
0.15349999999999999756,-0.00002146853330486920
0.15399999999999999800,-0.00001998752122744918
0.15449999999999999845,-0.00001937080742209218
0.15499999999999999889,-0.00001980589149752632
0.15549999999999999933,-0.00002123456033586990
0.15599999999999999978,-0.00002317043072253000
0.15650000000000000022,-0.00002482713171048090
0.15700000000000000067,-0.00002628678339533508
0.15750000000000000111,-0.00002786479853966739
0.15800000000000000155,-0.00002877182669180911
0.15850000000000000200,-0.00002776173641905189
0.15900000000000000244,-0.00002504495932953432
0.15950000000000000289,-0.00002240625326521695
0.16000000000000000333,-0.00002085239793814253
0.16050000000000000377,-0.00002002004475798458
0.16100000000000000422,-0.00001954943036253098
0.16150000000000000466,-0.00001888721453724429
0.16200000000000000511,-0.00001825992148951627
0.16250000000000000555,-0.00001984085974982008
0.16300000000000000600,-0.00002417299037915654
0.16350000000000000644,-0.00002871270771720446
0.16400000000000000688,-0.00003087229197262786
0.16450000000000000733,-0.00002940279955510050
0.16500000000000000777,-0.00002590701296867337
0.16550000000000000822,-0.00002373728966631461
0.16600000000000000866,-0.00002353354284423403
0.16650000000000000910,-0.00002395417686784640
0.16700000000000000955,-0.00002464395583956502
0.16750000000000000999,-0.00002562119880167302
0.16800000000000001044,-0.00002646760367497336
0.16850000000000001088,-0.00002664785461092834
0.16900000000000001132,-0.00002598183345980942
0.16950000000000001177,-0.00002535046041884925
0.17000000000000001221,-0.00002560394568718038
0.17050000000000001266,-0.00002597174534457736
0.17100000000000001310,-0.00002574181235104334
0.17150000000000001354,-0.00002547179428802337
0.17199999999999998623,-0.00002532913640607148
0.17249999999999998668,-0.00002523936382203829
0.17299999999999998712,-0.00002565982322266791
0.17349999999999998757,-0.00002601977757876739
0.17399999999999998801,-0.00002487312121957075
0.17449999999999998845,-0.00002203911026299465
0.17499999999999998890,-0.00001862214776338078
0.17549999999999998934,-0.00001591274485690519
0.17599999999999998979,-0.00001480979426560225
0.17649999999999999023,-0.00001493554191256408
0.17699999999999999067,-0.00001498143319622614
0.17749999999999999112,-0.00001476594661653508
0.17799999999999999156,-0.00001519783108960837
0.17849999999999999201,-0.00001630752012715675
0.17899999999999999245,-0.00001744828114169650
0.17949999999999999289,-0.00001875179805210792
0.17999999999999999334,-0.00002092332942993380
0.18049999999999999378,-0.00002393501199549064
0.18099999999999999423,-0.00002650565511430614
0.18149999999999999467,-0.00002696527189982589
0.18199999999999999512,-0.00002465289981046226
0.18249999999999999556,-0.00002060597216768656
0.18299999999999999600,-0.00001679856723058037
0.18349999999999999645,-0.00001467811671318486
0.18399999999999999689,-0.00001442431675968692
0.18449999999999999734,-0.00001526071719126776
0.18499999999999999778,-0.00001650905687711202
0.18549999999999999822,-0.00001846447230491322
0.18599999999999999867,-0.00002158549614250660
0.18649999999999999911,-0.00002555593528086320
0.18699999999999999956,-0.00003016032860614359
0.18750000000000000000,-0.00003501179890008643
0.18800000000000000044,-0.00003823111546807922
0.18850000000000000089,-0.00003805228698183782
0.18900000000000000133,-0.00003528541128616780
0.18950000000000000178,-0.00003251181988161989
0.19000000000000000222,-0.00003094483327004127
0.19050000000000000266,-0.00002924486580013763
0.19100000000000000311,-0.00002633917392813601
0.19150000000000000355,-0.00002369470166740939
0.19200000000000000400,-0.00002288842915731948
0.19250000000000000444,-0.00002292644239787478
0.19300000000000000488,-0.00002195588058384601
0.19350000000000000533,-0.00001981325476663187
0.19400000000000000577,-0.00001777401666913647
0.19450000000000000622,-0.00001676740430411883
0.19500000000000000666,-0.00001634204454603605
0.19550000000000000711,-0.00001608872480574064
0.19600000000000000755,-0.00001651236379984766
0.19650000000000000799,-0.00001696289655228611
0.19700000000000000844,-0.00001643007453822065
0.19750000000000000888,-0.00001617733687453438
0.19800000000000000933,-0.00001720773434499279
0.19850000000000000977,-0.00001837145646277349
0.19900000000000001021,-0.00001924382922879886
0.19950000000000001066,-0.00002037364902207628
0.20000000000000001110,-0.00002118131305905990
0.20050000000000001155,-0.00002067603782052175
0.20100000000000001199,-0.00001904140481201467
0.20150000000000001243,-0.00001732803502818570
0.20200000000000001288,-0.00001603007694939151
0.20250000000000001332,-0.00001487166809965856
0.20300000000000001377,-0.00001386920848744921
0.20349999999999998646,-0.00001367442382615991
0.20399999999999998690,-0.00001528073335066438
0.20449999999999998734,-0.00001897199399536476
0.20499999999999998779,-0.00002335719364054967
0.20549999999999998823,-0.00002706610757741145
0.20599999999999998868,-0.00003024573743459769
0.20649999999999998912,-0.00003294789712526836
0.20699999999999998956,-0.00003414595630601980
0.20749999999999999001,-0.00003301589822513051
0.20799999999999999045,-0.00002973639675474260
0.20849999999999999090,-0.00002490942279109731
0.20899999999999999134,-0.00001903596785268746
0.20949999999999999178,-0.00001315315603278577
0.20999999999999999223,-0.00000930588248593267
0.21049999999999999267,-0.00000868594543135259
0.21099999999999999312,-0.00001040411916619632
0.21149999999999999356,-0.00001388978489558212
0.21199999999999999400,-0.00002010860953305382
0.21249999999999999445,-0.00002926705019490328
0.21299999999999999489,-0.00003878723873640411
0.21349999999999999534,-0.00004421308403834701
0.21399999999999999578,-0.00004303697642171755
0.21449999999999999623,-0.00003724632551893592
0.21499999999999999667,-0.00003096615182585083
0.21549999999999999711,-0.00002626217610668391
0.21599999999999999756,-0.00002203644544351846
0.21649999999999999800,-0.00001667722790443804
0.21699999999999999845,-0.00001088626777345780
0.21749999999999999889,-0.00000727831911717658
0.21799999999999999933,-0.00000844630449137185
0.21849999999999999978,-0.00001384742427035235
0.21900000000000000022,-0.00001799935307644773
0.21950000000000000067,-0.00001743988832458854
0.22000000000000000111,-0.00001512240123702213
0.22050000000000000155,-0.00001329339465883095
0.22100000000000000200,-0.00001100242207030533
0.22150000000000000244,-0.00000848742456582841
0.22200000000000000289,-0.00000706087575963465
0.22250000000000000333,-0.00000671819043418509
0.22300000000000000377,-0.00000723157791071571
0.22350000000000000422,-0.00001040324968926143
0.22400000000000000466,-0.00001723815876175649
0.22450000000000000511,-0.00002438314731989522
0.22500000000000000555,-0.00002821277485054452
0.22550000000000000600,-0.00002883571687561926
0.22600000000000000644,-0.00002775246503006201
0.22650000000000000688,-0.00002629392656672280
0.22700000000000000733,-0.00002620694431243464
0.22750000000000000777,-0.00002870608477678616
0.22800000000000000822,-0.00003321988333482295
0.22850000000000000866,-0.00003754916542675346
0.22900000000000000910,-0.00003923249096260406
0.22950000000000000955,-0.00003739709791261703
0.23000000000000000999,-0.00003354821456014179
0.23050000000000001044,-0.00002954732190119102
0.23100000000000001088,-0.00002541705180192366
0.23150000000000001132,-0.00002170735206163954
0.23200000000000001177,-0.00002042055348283611
0.23250000000000001221,-0.00002055830555036664
0.23300000000000001266,-0.00001938683635671623
0.23350000000000001310,-0.00001764464104780927
0.23400000000000001354,-0.00001737301681714598
0.23449999999999998623,-0.00001834779686760157
0.23499999999999998668,-0.00001964572766155470
0.23549999999999998712,-0.00002154166941181757
0.23599999999999998757,-0.00002462912925693672
0.23649999999999998801,-0.00002799297726596706
0.23699999999999998845,-0.00002910278635681607
0.23749999999999998890,-0.00002645100175868720
0.23799999999999998934,-0.00002187447898904793
0.23849999999999998979,-0.00001886264908534940
0.23899999999999999023,-0.00001846091436163988
0.23949999999999999067,-0.00001806781074265018
0.23999999999999999112,-0.00001582174627401400
0.24049999999999999156,-0.00001403937312716152
0.24099999999999999201,-0.00001564882586535532
0.24149999999999999245,-0.00001965699811989907
0.24199999999999999289,-0.00002262294401589315
0.24249999999999999334,-0.00002360364851483610
0.24299999999999999378,-0.00002407434658380225
0.24349999999999999423,-0.00002389741166552994
0.24399999999999999467,-0.00002232771475974005
0.24449999999999999512,-0.00002011037940974347
0.24499999999999999556,-0.00001792634429875761
0.24549999999999999600,-0.00001604146928002592
0.24599999999999999645,-0.00001466569756303215
0.24649999999999999689,-0.00001393730781273916
0.24699999999999999734,-0.00001426490598532837
0.24749999999999999778,-0.00001566831087984610
0.24799999999999999822,-0.00001807041553547606
0.24849999999999999867,-0.00002161972952308133
0.24899999999999999911,-0.00002531453355913981
0.24949999999999999956,-0.00002788804886222351
0.25000000000000000000,-0.00002949966074083932
0.25050000000000000044,-0.00003032043605344370
0.25100000000000000089,-0.00002971217327285558
0.25150000000000000133,-0.00002702904930629301
0.25200000000000000178,-0.00002143192432413343
0.25250000000000000222,-0.00001379345485474914
0.25300000000000000266,-0.00000878619539435022
0.25350000000000000311,-0.00001011652148008579
0.25400000000000000355,-0.00001558045551064424
0.25450000000000000400,-0.00002038341517618392
0.25500000000000000444,-0.00002217733526777010
0.25550000000000000488,-0.00002166637932532467
0.25600000000000000533,-0.00002075722659355961
0.25650000000000000577,-0.00002092426802846603
0.25700000000000000622,-0.00002247565862489864
0.25750000000000000666,-0.00002490521728759632
0.25800000000000000711,-0.00002779101123451255
0.25850000000000000755,-0.00002976020186906680
0.25900000000000000799,-0.00002900194886024110
0.25950000000000000844,-0.00002676275835256092
0.26000000000000000888,-0.00002513575600460172
0.26050000000000000933,-0.00002357233461225405
0.26100000000000000977,-0.00002175065310439095
0.26150000000000001021,-0.00002009022500715218
0.26200000000000001066,-0.00001796831929823384
0.26250000000000001110,-0.00001577791772433557
0.26300000000000001155,-0.00001504419105913257
0.26350000000000001199,-0.00001601175608811900
0.26400000000000001243,-0.00001799869460228365
0.26450000000000001288,-0.00001987172981898766
0.26500000000000001332,-0.00001999865708057769
0.26550000000000001377,-0.00001859909025370143
0.26600000000000001421,-0.00001808291744964663
0.26650000000000001465,-0.00001967087700904813
0.26700000000000001510,-0.00002231393955298699
0.26750000000000001554,-0.00002464798490109388
0.26800000000000001599,-0.00002633848453115207
0.26850000000000001643,-0.00002783780655590817
0.26900000000000001688,-0.00002925698390754406
0.26950000000000001732,-0.00002986473919008859
0.27000000000000001776,-0.00002912024501711130
0.27050000000000001821,-0.00002765455610642675
0.27100000000000001865,-0.00002582228808023501
0.27150000000000001910,-0.00002237041189800948
0.27200000000000001954,-0.00001755674020387232
0.27250000000000001998,-0.00001433359830116388
0.27300000000000002043,-0.00001402812085871119
0.27350000000000002087,-0.00001639657239138614
0.27400000000000002132,-0.00002094603951263707
0.27450000000000002176,-0.00002430466338410043
0.27500000000000002220,-0.00002400810262770392
0.27550000000000002265,-0.00002280827720824163
0.27600000000000002309,-0.00002327105539734475
0.27650000000000002354,-0.00002405081613687798
0.27700000000000002398,-0.00002341367689950857
0.27750000000000002442,-0.00002214487540186383
0.27800000000000002487,-0.00002203470648964867
0.27850000000000002531,-0.00002325860805285629
0.27900000000000002576,-0.00002475466862961184
0.27950000000000002620,-0.00002543933260312770
0.28000000000000002665,-0.00002435470923956018
0.28050000000000002709,-0.00002210990533058066
0.28100000000000002753,-0.00002082478931697551
0.28149999999999997247,-0.00002074067015200853
0.28199999999999997291,-0.00001999668347707484
0.28249999999999997335,-0.00001789173074939754
0.28299999999999997380,-0.00001540091216156725
0.28349999999999997424,-0.00001371853159071179
0.28399999999999997469,-0.00001350873208139092
0.28449999999999997513,-0.00001509525463916361
0.28499999999999997558,-0.00001878336479421705
0.28549999999999997602,-0.00002281227716594003
0.28599999999999997646,-0.00002453075285302475
0.28649999999999997691,-0.00002577345367171802
0.28699999999999997735,-0.00002935942211479414
0.28749999999999997780,-0.00003276666029705666
0.28799999999999997824,-0.00003259923323639669
0.28849999999999997868,-0.00002965027124446351
0.28899999999999997913,-0.00002656198921613395
0.28949999999999997957,-0.00002467766717018094
0.28999999999999998002,-0.00002392060741840396
0.29049999999999998046,-0.00002390715417277534
0.29099999999999998090,-0.00002431552093185019
0.29149999999999998135,-0.00002466853220539633
0.29199999999999998179,-0.00002434621455904562
0.29249999999999998224,-0.00002299266998306848
0.29299999999999998268,-0.00002073358336929232
0.29349999999999998312,-0.00001796164360712282
0.29399999999999998357,-0.00001539785444037989
0.29449999999999998401,-0.00001390318630001275
0.29499999999999998446,-0.00001369328037981177
0.29549999999999998490,-0.00001472667736379662
0.29599999999999998535,-0.00001703243106021546
0.29649999999999998579,-0.00001919543865369633
0.29699999999999998623,-0.00001946976408362389
0.29749999999999998668,-0.00001882037759060040
0.29799999999999998712,-0.00001923416857607663
0.29849999999999998757,-0.00002089596819132566
0.29899999999999998801,-0.00002257288178952876
0.29949999999999998845,-0.00002290410702698864
0.29999999999999998890,-0.00002257289270346518
0.30049999999999998934,-0.00002429890264465939
0.30099999999999998979,-0.00002853079786291346
0.30149999999999999023,-0.00003232888047932647
0.30199999999999999067,-0.00003401350841159001
0.30249999999999999112,-0.00003449603536864743
0.30299999999999999156,-0.00003387346805538982
0.30349999999999999201,-0.00003200575520168059
0.30399999999999999245,-0.00003006412589456886
0.30449999999999999289,-0.00002748732549662236
0.30499999999999999334,-0.00002265795046696439
0.30549999999999999378,-0.00001748774593579583
0.30599999999999999423,-0.00001596578476892319
0.30649999999999999467,-0.00001885582059912849
0.30699999999999999512,-0.00002266484625579324
0.30749999999999999556,-0.00002391285124758724
0.30799999999999999600,-0.00002254949868074618
0.30849999999999999645,-0.00002021669206442311
0.30899999999999999689,-0.00001749721741362009
0.30949999999999999734,-0.00001432559565728298
0.30999999999999999778,-0.00001182024334411835
0.31049999999999999822,-0.00001101659199775895
0.31099999999999999867,-0.00001051944218488643
0.31149999999999999911,-0.00000950707999436418
0.31199999999999999956,-0.00001045804219756974
0.31250000000000000000,-0.00001539909499115311
0.31300000000000000044,-0.00002375095755269285
0.31350000000000000089,-0.00003390842175576836
0.31400000000000000133,-0.00004257927867001854
0.31450000000000000178,-0.00004620320032699965
0.31500000000000000222,-0.00004522663220996037
0.31550000000000000266,-0.00004262816582922824
0.31600000000000000311,-0.00003984224895248190
0.31650000000000000355,-0.00003666962948045693
0.31700000000000000400,-0.00003263745747972280
0.31750000000000000444,-0.00002755045716185123
0.31800000000000000488,-0.00002140420656360220
0.31850000000000000533,-0.00001516854536021128
0.31900000000000000577,-0.00001109550976252649
0.31950000000000000622,-0.00000963498951023212
0.32000000000000000666,-0.00000836132403492229
0.32050000000000000711,-0.00000601600913796574
0.32100000000000000755,-0.00000457111809737398
0.32150000000000000799,-0.00000597776624999824
0.32200000000000000844,-0.00000899159567779861
0.32250000000000000888,-0.00001149903528130380
0.32300000000000000933,-0.00001381038146064384
0.32350000000000000977,-0.00001654300649533980
0.32400000000000001021,-0.00001900099414342549
0.32450000000000001066,-0.00002112693073286209
0.32500000000000001110,-0.00002337927617190871
0.32550000000000001155,-0.00002566810326243285
0.32600000000000001199,-0.00002728003164520487
0.32650000000000001243,-0.00002740916352195200
0.32700000000000001288,-0.00002706360101001337
0.32750000000000001332,-0.00002802258859446738
0.32800000000000001377,-0.00002965850035252515
0.32850000000000001421,-0.00003001828554261010
0.32900000000000001465,-0.00002852288162102923
0.32950000000000001510,-0.00002601539017632604
0.33000000000000001554,-0.00002334581768081989
0.33050000000000001599,-0.00002001810753426980
0.33100000000000001643,-0.00001484768836235162
0.33150000000000001688,-0.00000829887540021446
0.33200000000000001732,-0.00000185024828169844
0.33250000000000001776,0.00000362687615051982
0.33300000000000001821,0.00000586324358664569
0.33350000000000001865,0.00000229008378482831
0.33400000000000001910,-0.00000582005850446876
0.33450000000000001954,-0.00001605153738637455
0.33500000000000001998,-0.00002726764796534553
0.33550000000000002043,-0.00003595743328332901
0.33600000000000002087,-0.00003867219857056625
0.33650000000000002132,-0.00003733991616172716
0.33700000000000002176,-0.00003555696093826555
0.33750000000000002220,-0.00003427011688472703
0.33800000000000002265,-0.00003327363447169773
0.33850000000000002309,-0.00003158846448059194
0.33900000000000002354,-0.00002721589044085704
0.33950000000000002398,-0.00002113052687491290
0.34000000000000002442,-0.00001758267717377748
0.34050000000000002487,-0.00001715450707706623
0.34100000000000002531,-0.00001687455551291350
0.34150000000000002576,-0.00001624255492060911
0.34200000000000002620,-0.00001618473288544919
0.34250000000000002665,-0.00001669274570303969
0.34300000000000002709,-0.00001797456388885621
0.34350000000000002753,-0.00001995772072405089
0.34399999999999997247,-0.00002125918763340451
0.34449999999999997291,-0.00002065838998532854
0.34499999999999997335,-0.00001892658656288404
0.34549999999999997380,-0.00001765408887877129
0.34599999999999997424,-0.00001717035047477111
0.34649999999999997469,-0.00001738463106448762
0.34699999999999997513,-0.00001856245762610342
0.34749999999999997558,-0.00002035874604189303
0.34799999999999997602,-0.00002253202001156751
0.34849999999999997646,-0.00002531041718611959
0.34899999999999997691,-0.00002764108103292529
0.34949999999999997735,-0.00002819812834786717
0.34999999999999997780,-0.00002768093872873579
0.35049999999999997824,-0.00002725680315052159
0.35099999999999997868,-0.00002675275209185202
0.35149999999999997913,-0.00002572325865912717
0.35199999999999997957,-0.00002486370431142859
0.35249999999999998002,-0.00002557364859967493
0.35299999999999998046,-0.00002738986040640157
0.35349999999999998090,-0.00002766159377642907
0.35399999999999998135,-0.00002545806455600541
0.35449999999999998179,-0.00002309141746081877
0.35499999999999998224,-0.00002267244417453185
0.35549999999999998268,-0.00002366284024901688
0.35599999999999998312,-0.00002421905082883313
0.35649999999999998357,-0.00002303143628523685
0.35699999999999998401,-0.00001986415554711130
0.35749999999999998446,-0.00001576800605107564
0.35799999999999998490,-0.00001279554999200627
0.35849999999999998535,-0.00001268856431124732
0.35899999999999998579,-0.00001532890382804908
0.35949999999999998623,-0.00001871449603640940
0.35999999999999998668,-0.00002090322595904581
0.36049999999999998712,-0.00002125348328263499
0.36099999999999998757,-0.00002011926517297979
0.36149999999999998801,-0.00001896595495054498
0.36199999999999998845,-0.00001954897197720129
0.36249999999999998890,-0.00002174938163079787
0.36299999999999998934,-0.00002424014019197784
0.36349999999999998979,-0.00002640827187860850
0.36399999999999999023,-0.00002734109693847131
0.36449999999999999067,-0.00002601352025521919
0.36499999999999999112,-0.00002354160824324936
0.36549999999999999156,-0.00002162871351174545
0.36599999999999999201,-0.00002010954813158605
0.36649999999999999245,-0.00001883920958789531
0.36699999999999999289,-0.00001879193587228656
0.36749999999999999334,-0.00001966068339243066
0.36799999999999999378,-0.00001991902536246926
0.36849999999999999423,-0.00001950703153852374
0.36899999999999999467,-0.00001968042306543794
0.36949999999999999512,-0.00002065602348011453
0.36999999999999999556,-0.00002135444992745761
0.37049999999999999600,-0.00002106009014823940
0.37099999999999999645,-0.00001997469189518597
0.37149999999999999689,-0.00001885099663923029
0.37199999999999999734,-0.00001888956649054307
0.37249999999999999778,-0.00002093898365274072
0.37299999999999999822,-0.00002483717253198847
0.37349999999999999867,-0.00003014078538399190
0.37399999999999999911,-0.00003608510814956389
0.37449999999999999956,-0.00004079199061379768
0.37500000000000000000,-0.00004245875243213959
0.37550000000000000044,-0.00004073477612109855
0.37600000000000000089,-0.00003601175922085531
0.37650000000000000133,-0.00002912895797635429
0.37700000000000000178,-0.00002155927541025449
0.37750000000000000222,-0.00001422751847712789
0.37800000000000000266,-0.00000767015080782585
0.37850000000000000311,-0.00000326772760672611
0.37900000000000000355,-0.00000231213471124647
0.37950000000000000400,-0.00000543252372153802
0.38000000000000000444,-0.00001206733941216953
0.38050000000000000488,-0.00001840996083046775
0.38100000000000000533,-0.00002038097045442555
0.38150000000000000577,-0.00001901582436403260
0.38200000000000000622,-0.00001801383223209996
0.38250000000000000666,-0.00001876013629953377
0.38300000000000000711,-0.00002060683618765324
0.38350000000000000755,-0.00002296181628480554
0.38400000000000000799,-0.00002604496330604888
0.38450000000000000844,-0.00002968248554680031
0.38500000000000000888,-0.00003203225060133263
0.38550000000000000933,-0.00003137434032396413
0.38600000000000000977,-0.00002817942913679872
0.38650000000000001021,-0.00002399752156634350
0.38700000000000001066,-0.00001943787356140092
0.38750000000000001110,-0.00001471398354624398
0.38800000000000001155,-0.00001113602593250107
0.38850000000000001199,-0.00000989462569123134
0.38900000000000001243,-0.00001082840935850982
0.38950000000000001288,-0.00001389927547279512
0.39000000000000001332,-0.00001942756898642983
0.39050000000000001377,-0.00002623446744109970
0.39100000000000001421,-0.00003150718112010509
0.39150000000000001465,-0.00003307307997602038
0.39200000000000001510,-0.00003143446156173013
0.39250000000000001554,-0.00002889718234655447
0.39300000000000001599,-0.00002744054654613137
0.39350000000000001643,-0.00002829005097737536
0.39400000000000001688,-0.00003062405085074715
0.39450000000000001732,-0.00003092351107625291
0.39500000000000001776,-0.00002784869138849899
0.39550000000000001821,-0.00002439143645460718
0.39600000000000001865,-0.00002291715281899087
0.39650000000000001910,-0.00002334016244276427
0.39700000000000001954,-0.00002526010575820692
0.39750000000000001998,-0.00002806014708767179
0.39800000000000002043,-0.00003022774762939662
0.39850000000000002087,-0.00003013215427927207
0.39900000000000002132,-0.00002758284972514957
0.39950000000000002176,-0.00002413206311757676
0.40000000000000002220,-0.00002137742194463499
0.40050000000000002265,-0.00001937757770065219
0.40100000000000002309,-0.00001716083534120116
0.40150000000000002354,-0.00001462444743083324
0.40200000000000002398,-0.00001352681465505157
0.40250000000000002442,-0.00001579272066010162
0.40300000000000002487,-0.00002065588341793046
0.40350000000000002531,-0.00002482325726305134
0.40400000000000002576,-0.00002570900142018218
0.40450000000000002620,-0.00002366326407354791
0.40500000000000002665,-0.00002103393671859522
0.40550000000000002709,-0.00001954764775291551
0.40600000000000002753,-0.00001945513395185117
0.40649999999999997247,-0.00002034229692071676
0.40699999999999997291,-0.00002101960672007408
0.40749999999999997335,-0.00002080560261674691
0.40799999999999997380,-0.00002115582174155861
0.40849999999999997424,-0.00002246449548692908
0.40899999999999997469,-0.00002248216333100572
0.40949999999999997513,-0.00002077219869534019
0.40999999999999997558,-0.00002012841468967963
0.41049999999999997602,-0.00002226444667030592
0.41099999999999997646,-0.00002523074363125488
0.41149999999999997691,-0.00002669494460860733
0.41199999999999997735,-0.00002671065703907516
0.41249999999999997780,-0.00002511470302124508
0.41299999999999997824,-0.00002106002648361027
0.41349999999999997868,-0.00001580872776685283
0.41399999999999997913,-0.00001173686177935451
0.41449999999999997957,-0.00001057536701409845
0.41499999999999998002,-0.00001365552998322528
0.41549999999999998046,-0.00001990740565815940
0.41599999999999998090,-0.00002490018960088491
0.41649999999999998135,-0.00002525033050915226
0.41699999999999998179,-0.00002235172905784566
0.41749999999999998224,-0.00002003506961045787
0.41799999999999998268,-0.00001963497015822213
0.41849999999999998312,-0.00001964406328625046
0.41899999999999998357,-0.00001927791345224250
0.41949999999999998401,-0.00001863397301349323
0.41999999999999998446,-0.00001694896491244435
0.42049999999999998490,-0.00001383937251375755
0.42099999999999998535,-0.00000926029588299571
0.42149999999999998579,-0.00000274445437753457
0.42199999999999998623,0.00000287150623989874
0.42249999999999998668,0.00000284274028672371
0.42299999999999998712,-0.00000213329440157395
0.42349999999999998757,-0.00000800619000074221
0.42399999999999998801,-0.00001333913951384602
0.42449999999999998845,-0.00001804990279197227
0.42499999999999998890,-0.00002141237018804532
0.42549999999999998934,-0.00002325796231161803
0.42599999999999998979,-0.00002512413448130246
0.42649999999999999023,-0.00002847023824870121
0.42699999999999999067,-0.00003202133302693255
0.42749999999999999112,-0.00003330212348373607
0.42799999999999999156,-0.00003206676774425432
0.42849999999999999201,-0.00003031123742402997
0.42899999999999999245,-0.00002956573734991252
0.42949999999999999289,-0.00002971226967929397
0.42999999999999999334,-0.00003025301339221187
0.43049999999999999378,-0.00003065371129196137
0.43099999999999999423,-0.00003005549842782784
0.43149999999999999467,-0.00002861723260139115
0.43199999999999999512,-0.00002757220499916002
0.43249999999999999556,-0.00002732405664573889
0.43299999999999999600,-0.00002746514292084612
0.43349999999999999645,-0.00002813319952110760
0.43399999999999999689,-0.00002963410770462360
0.43449999999999999734,-0.00003120725887129083
0.43499999999999999778,-0.00003098893284914084
0.43549999999999999822,-0.00002719670737860724
0.43599999999999999867,-0.00002042647793132346
0.43649999999999999911,-0.00001408830939908512
0.43699999999999999956,-0.00001012913435260998
0.43750000000000000000,-0.00000731151931177010
0.43800000000000000044,-0.00000537162122782320
0.43850000000000000089,-0.00000596218251303071
0.43900000000000000133,-0.00000948916749621276
0.43950000000000000178,-0.00001462629552406724
0.44000000000000000222,-0.00002034156750596594
0.44050000000000000266,-0.00002657966797414701
0.44100000000000000311,-0.00003264660699642263
0.44150000000000000355,-0.00003711583121912554
0.44200000000000000400,-0.00003992184429080226
0.44250000000000000444,-0.00004170199463260360
0.44300000000000000488,-0.00004158644151175395
0.44350000000000000533,-0.00003797137105721049
0.44400000000000000577,-0.00003159776315442286
0.44450000000000000622,-0.00002580605905677658
0.44500000000000000666,-0.00002213257175753824
0.44550000000000000711,-0.00001931702172441874
0.44600000000000000755,-0.00001715155667625368
0.44650000000000000799,-0.00001623527896299493
0.44700000000000000844,-0.00001589336898177862
0.44750000000000000888,-0.00001601154144736938
0.44800000000000000933,-0.00001753812102833763
0.44850000000000000977,-0.00002007680268434342
0.44900000000000001021,-0.00002206773933721706
0.44950000000000001066,-0.00002291495911777020
0.45000000000000001110,-0.00002321845386177302
0.45050000000000001155,-0.00002359298741794191
0.45100000000000001199,-0.00002396582749497611
0.45150000000000001243,-0.00002392833812336903
0.45200000000000001288,-0.00002387059794273227
0.45250000000000001332,-0.00002461632175254636
0.45300000000000001377,-0.00002530118945287541
0.45350000000000001421,-0.00002449662315484602
0.45400000000000001465,-0.00002336014222237282
0.45450000000000001510,-0.00002426302307867445
0.45500000000000001554,-0.00002691878398763947
0.45550000000000001599,-0.00002809942998283077
0.45600000000000001643,-0.00002573301389929838
0.45650000000000001688,-0.00002180360206693877
0.45700000000000001732,-0.00001961548514373135
0.45750000000000001776,-0.00001944375617313199
0.45800000000000001821,-0.00001897388756333385
0.45850000000000001865,-0.00001767717003531288
0.45900000000000001910,-0.00001667501783231273
0.45950000000000001954,-0.00001516581960459007
0.46000000000000001998,-0.00001261651414097287
0.46050000000000002043,-0.00001141983102570521
0.46100000000000002087,-0.00001378045908495551
0.46150000000000002132,-0.00001843884274421726
0.46200000000000002176,-0.00002171028972952626
0.46250000000000002220,-0.00002250355100841261
0.46300000000000002265,-0.00002361832230235450
0.46350000000000002309,-0.00002643442348926328
0.46400000000000002354,-0.00002863841109501664
0.46450000000000002398,-0.00002729016159719322
0.46500000000000002442,-0.00002159712130378466
0.46550000000000002487,-0.00001418552892573644
0.46600000000000002531,-0.00000942637780099176
0.46650000000000002576,-0.00000879629897099221
0.46700000000000002620,-0.00001029629311233293
0.46750000000000002665,-0.00001258567954209866
0.46800000000000002709,-0.00001603576129127759
0.46850000000000002753,-0.00002026872243732214
0.46899999999999997247,-0.00002349915848753881
0.46949999999999997291,-0.00002465862053213641
0.46999999999999997335,-0.00002479838803992607
0.47049999999999997380,-0.00002568897434684914
0.47099999999999997424,-0.00002752937689365353
0.47149999999999997469,-0.00002877916995203122
0.47199999999999997513,-0.00002851267890946474
0.47249999999999997558,-0.00002746923928498290
0.47299999999999997602,-0.00002648364352353383
0.47349999999999997646,-0.00002615640551084653
0.47399999999999997691,-0.00002740019408520311
0.47449999999999997735,-0.00002968475200759713
0.47499999999999997780,-0.00003065303826588206
0.47549999999999997824,-0.00002950044472527225
0.47599999999999997868,-0.00002780985414574388
0.47649999999999997913,-0.00002617611971800216
0.47699999999999997957,-0.00002308229886693880
0.47749999999999998002,-0.00001761013118084520
0.47799999999999998046,-0.00001120116940001026
0.47849999999999998090,-0.00000652798735245597
0.47899999999999998135,-0.00000564760330235003
0.47949999999999998179,-0.00000856606766319601
0.47999999999999998224,-0.00001298052393394755
0.48049999999999998268,-0.00001653547769819852
0.48099999999999998312,-0.00001883889854070731
0.48149999999999998357,-0.00002007917282753624
0.48199999999999998401,-0.00002031218537013046
0.48249999999999998446,-0.00002078981560771354
0.48299999999999998490,-0.00002230577047157567
0.48349999999999998535,-0.00002338572267035488
0.48399999999999998579,-0.00002276564191561192
0.48449999999999998623,-0.00002154469621018506
0.48499999999999998668,-0.00002160317853849847
0.48549999999999998712,-0.00002303974542883225
0.48599999999999998757,-0.00002484025026205927
0.48649999999999998801,-0.00002709642649278976
0.48699999999999998845,-0.00002960376878036186
0.48749999999999998890,-0.00003067421494051814
0.48799999999999998934,-0.00002964312989206519
0.48849999999999998979,-0.00002786549703159835
0.48899999999999999023,-0.00002684959326870739
0.48949999999999999067,-0.00002642903382366057
0.48999999999999999112,-0.00002500155278539751
0.49049999999999999156,-0.00002182253592764027
0.49099999999999999201,-0.00001817293741623871
0.49149999999999999245,-0.00001591490217833780
0.49199999999999999289,-0.00001557816540298518
0.49249999999999999334,-0.00001618615533516277
0.49299999999999999378,-0.00001681446701695677
0.49349999999999999423,-0.00001784039523045067
0.49399999999999999467,-0.00001982509638764895
0.49449999999999999512,-0.00002216431130364072
0.49499999999999999556,-0.00002440931712044403
0.49549999999999999600,-0.00002669470632099546
0.49599999999999999645,-0.00002800506081257481
0.49649999999999999689,-0.00002693629357963800
0.49699999999999999734,-0.00002394329203525558
0.49749999999999999778,-0.00002097110518661793
0.49799999999999999822,-0.00001944658652064390
0.49849999999999999867,-0.00001933003659360111
0.49899999999999999911,-0.00001989366865018383
0.49949999999999999956,-0.00002116681753250305
0.50000000000000000000,-0.00002405199484201148
0.50049999999999994493,-0.00002822045462380629
0.50100000000000000089,-0.00003092419865424745
0.50149999999999994582,-0.00002938177931355312
0.50200000000000000178,-0.00002431810935377143
0.50249999999999994671,-0.00001949063698702957
0.50300000000000000266,-0.00001702541703707539
0.50349999999999994760,-0.00001615844666957855
0.50400000000000000355,-0.00001661881651671138
0.50449999999999994849,-0.00001936458647833206
0.50500000000000000444,-0.00002380468322371598
0.50549999999999994937,-0.00002701566700125113
0.50600000000000000533,-0.00002749936356849503
0.50649999999999995026,-0.00002688619133550674
0.50700000000000000622,-0.00002585196307336446
0.50749999999999995115,-0.00002378850331297144
0.50800000000000000711,-0.00002242722257506102
0.50849999999999995204,-0.00002388103530392982
0.50900000000000000799,-0.00002736269016168080
0.50949999999999995293,-0.00003072494655498303
0.51000000000000000888,-0.00003283342084614560
0.51049999999999995381,-0.00003378392284503207
0.51100000000000000977,-0.00003390246274648234
0.51149999999999995470,-0.00003312780609121546
0.51200000000000001066,-0.00003114889841526747
0.51249999999999995559,-0.00002769547973002773
0.51300000000000001155,-0.00002326171124877873
0.51349999999999995648,-0.00001938169771165121
0.51400000000000001243,-0.00001654791412875056
0.51449999999999995737,-0.00001339807022304740
0.51500000000000001332,-0.00001081248319678707
0.51549999999999995826,-0.00001148541286966065
0.51600000000000001421,-0.00001366039396089036
0.51649999999999995914,-0.00001368706125504104
0.51700000000000001510,-0.00001147377861343557
0.51749999999999996003,-0.00000826231189421378
0.51800000000000001599,-0.00000657777582091512
0.51849999999999996092,-0.00001008297022053739
0.51900000000000001688,-0.00001778288424247876
0.51949999999999996181,-0.00002458337621646933
0.52000000000000001776,-0.00002730468986555934
0.52049999999999996270,-0.00002553356534917839
0.52100000000000001865,-0.00002076036798825953
0.52149999999999996358,-0.00001630804581509437
0.52200000000000001954,-0.00001484625499870162
0.52249999999999996447,-0.00001603406781214289
0.52300000000000002043,-0.00001765393244568259
0.52349999999999996536,-0.00001901966243167408
0.52400000000000002132,-0.00002129053609678522
0.52449999999999996625,-0.00002374763971602079
0.52500000000000002220,-0.00002400828270765487
0.52549999999999996714,-0.00002166624108213000
0.52600000000000002309,-0.00001795318530639634
0.52649999999999996803,-0.00001434997830074280
0.52700000000000002398,-0.00001258206793863792
0.52749999999999996891,-0.00001344381598755717
0.52800000000000002487,-0.00001681721187196672
0.52849999999999996980,-0.00002185358425776940
0.52900000000000002576,-0.00002597033380880021
0.52949999999999997069,-0.00002728771687543485
0.53000000000000002665,-0.00002661839243955911
0.53049999999999997158,-0.00002532424878154416
0.53100000000000002753,-0.00002463679629727267
0.53149999999999997247,-0.00002567028423072770
0.53200000000000002842,-0.00002735388079599943
0.53249999999999997335,-0.00002689212669793051
0.53300000000000002931,-0.00002461015719745773
0.53349999999999997424,-0.00002487990605004597
0.53400000000000003020,-0.00002967172076751012
0.53449999999999997513,-0.00003577682582545094
0.53500000000000003109,-0.00003907488644472323
0.53549999999999997602,-0.00003761617335840128
0.53600000000000003197,-0.00003182236105203629
0.53649999999999997691,-0.00002381292506470345
0.53700000000000003286,-0.00001642153620196041
0.53749999999999997780,-0.00001201811755890958
0.53800000000000003375,-0.00001081366826838348
0.53849999999999997868,-0.00001077923025150085
0.53900000000000003464,-0.00001047375099005876
0.53949999999999997957,-0.00001120076194638386
0.54000000000000003553,-0.00001479973798268475
0.54049999999999998046,-0.00002027019218076020
0.54100000000000003642,-0.00002454876084811985
0.54149999999999998135,-0.00002578002931841183
0.54200000000000003730,-0.00002470293475198559
0.54249999999999998224,-0.00002298153958690818
0.54300000000000003819,-0.00002131083601852879
0.54349999999999998312,-0.00001991644239751622
0.54400000000000003908,-0.00001923029776662588
0.54449999999999998401,-0.00001941288610396441
0.54500000000000003997,-0.00002037867488979828
0.54549999999999998490,-0.00002174913061026018
0.54600000000000004086,-0.00002247853080916684
0.54649999999999998579,-0.00002183904507546686
0.54700000000000004174,-0.00002055584263871424
0.54749999999999998668,-0.00001999661617446691
0.54800000000000004263,-0.00002057776328001637
0.54849999999999998757,-0.00002130388929799665
0.54900000000000004352,-0.00002083601066260598
0.54949999999999998845,-0.00001910194077936467
0.55000000000000004441,-0.00001764785156410653
0.55049999999999998934,-0.00001797325603547506
0.55100000000000004530,-0.00001989934571611229
0.55149999999999999023,-0.00002197483809140977
0.55200000000000004619,-0.00002278846659464762
0.55249999999999999112,-0.00002183126525778789
0.55300000000000004707,-0.00001985465132747777
0.55349999999999999201,-0.00001840130062191747
0.55400000000000004796,-0.00001846461782406550
0.55449999999999999289,-0.00001935851651069243
0.55500000000000004885,-0.00001937831802933943
0.55549999999999999378,-0.00001801244434318505
0.55600000000000004974,-0.00001695047103567049
0.55649999999999999467,-0.00001821344994823448
0.55700000000000005063,-0.00002159112409572117
0.55749999999999999556,-0.00002506521013856400
0.55800000000000005151,-0.00002726058846747037
0.55849999999999999645,-0.00002805221811286174
0.55900000000000005240,-0.00002777908593998290
0.55949999999999999734,-0.00002692051202757284
0.56000000000000005329,-0.00002591077645774931
0.56049999999999999822,-0.00002459201277815737
0.56100000000000005418,-0.00002188453436247073
0.56149999999999999911,-0.00001748919021338224
0.56200000000000005507,-0.00001358295958198141
0.56250000000000000000,-0.00001261934903595829
0.56299999999999994493,-0.00001414031703461660
0.56350000000000000089,-0.00001558754775032867
0.56399999999999994582,-0.00001623894422664307
0.56450000000000000178,-0.00001855384653026704
0.56499999999999994671,-0.00002458038397890050
0.56550000000000000266,-0.00003210800423403271
0.56599999999999994760,-0.00003634461609181017
0.56650000000000000355,-0.00003608354745665565
0.56699999999999994849,-0.00003442393426666968
0.56750000000000000444,-0.00003322503835079260
0.56799999999999994937,-0.00003191881114616990
0.56850000000000000533,-0.00002998321178893093
0.56899999999999995026,-0.00002777662666630931
0.56950000000000000622,-0.00002620389386720490
0.56999999999999995115,-0.00002518595647416078
0.57050000000000000711,-0.00002367804518144112
0.57099999999999995204,-0.00002148325984308030
0.57150000000000000799,-0.00001886237805592827
0.57199999999999995293,-0.00001578402407176327
0.57250000000000000888,-0.00001323920787399402
0.57299999999999995381,-0.00001353884545096662
0.57350000000000000977,-0.00001745251574902795
0.57399999999999995470,-0.00002293795114383101
0.57450000000000001066,-0.00002832977406796999
0.57499999999999995559,-0.00003325940633658320
0.57550000000000001155,-0.00003641345392679795
0.57599999999999995648,-0.00003653703606687486
0.57650000000000001243,-0.00003448078132350929
0.57699999999999995737,-0.00003173811273882166
0.57750000000000001332,-0.00002806977136060596
0.57799999999999995826,-0.00002252206468256190
0.57850000000000001421,-0.00001640101254452020
0.57899999999999995914,-0.00001279343086935114
0.57950000000000001510,-0.00001299656287301332
0.57999999999999996003,-0.00001489608803240117
0.58050000000000001599,-0.00001552814319438767
0.58099999999999996092,-0.00001459735904063564
0.58150000000000001688,-0.00001372268889099360
0.58199999999999996181,-0.00001365649859508267
0.58250000000000001776,-0.00001427951519872295
0.58299999999999996270,-0.00001536476702312939
0.58350000000000001865,-0.00001676066676736809
0.58399999999999996358,-0.00001897800393635407
0.58450000000000001954,-0.00002218173176515847
0.58499999999999996447,-0.00002470306390023325
0.58550000000000002043,-0.00002475899418641347
0.58599999999999996536,-0.00002245212272100616
0.58650000000000002132,-0.00001892073851195164
0.58699999999999996625,-0.00001557649557071272
0.58750000000000002220,-0.00001346468434348935
0.58799999999999996714,-0.00001167426216852618
0.58850000000000002309,-0.00000905864726519212
0.58899999999999996803,-0.00000750368144508684
0.58950000000000002398,-0.00000990638091025176
0.58999999999999996891,-0.00001606265323061962
0.59050000000000002487,-0.00002269286051159725
0.59099999999999996980,-0.00002631356801430229
0.59150000000000002576,-0.00002564789974712767
0.59199999999999997069,-0.00002223902265541255
0.59250000000000002665,-0.00001900152346934192
0.59299999999999997158,-0.00001794429226720240
0.59350000000000002753,-0.00001906244142446667
0.59399999999999997247,-0.00002080413469229825
0.59450000000000002842,-0.00002151640546799172
0.59499999999999997335,-0.00002135472641384695
0.59550000000000002931,-0.00002216046414105222
0.59599999999999997424,-0.00002452654553053435
0.59650000000000003020,-0.00002728635627136100
0.59699999999999997513,-0.00002983688682434149
0.59750000000000003109,-0.00003174991070409305
0.59799999999999997602,-0.00003229318826925009
0.59850000000000003197,-0.00003202501466148533
0.59899999999999997691,-0.00003155633385176770
0.59950000000000003286,-0.00003033955181308556
0.59999999999999997780,-0.00002863596637325827
0.60050000000000003375,-0.00002722800491028465
0.60099999999999997868,-0.00002592934106360190
0.60150000000000003464,-0.00002474865868862253
0.60199999999999997957,-0.00002366816261201166
0.60250000000000003553,-0.00002148030034732074
0.60299999999999998046,-0.00001799852543626912
0.60350000000000003642,-0.00001506244552729186
0.60399999999999998135,-0.00001389546287100529
0.60450000000000003730,-0.00001426458857167745
0.60499999999999998224,-0.00001562562283652369
0.60550000000000003819,-0.00001745517693052534
0.60599999999999998312,-0.00001961348789336625
0.60650000000000003908,-0.00002211507489846554
0.60699999999999998401,-0.00002383286300755572
0.60750000000000003997,-0.00002351921102672350
0.60799999999999998490,-0.00002206146564276423
0.60850000000000004086,-0.00002135235445166472
0.60899999999999998579,-0.00002238698652945459
0.60950000000000004174,-0.00002510494960006326
0.60999999999999998668,-0.00002813339233398438
0.61050000000000004263,-0.00002956821117550135
0.61099999999999998757,-0.00002853660953405779
0.61150000000000004352,-0.00002578094608907122
0.61199999999999998845,-0.00002334425698791165
0.61250000000000004441,-0.00002258905624330509
0.61299999999999998934,-0.00002296672391821630
0.61350000000000004530,-0.00002386031337664462
0.61399999999999999023,-0.00002579967986093834
0.61450000000000004619,-0.00002898354250646662
0.61499999999999999112,-0.00003196241596015170
0.61550000000000004707,-0.00003293705958640203
0.61599999999999999201,-0.00003148414180031978
0.61650000000000004796,-0.00002793542444123887
0.61699999999999999289,-0.00002311200660187751
0.61750000000000004885,-0.00001855789014371112
0.61799999999999999378,-0.00001422104742232477
0.61850000000000004974,-0.00000908083984541008
0.61899999999999999467,-0.00000569547637496726
0.61950000000000005063,-0.00000746949353924720
0.61999999999999999556,-0.00001263170724996598
0.62050000000000005151,-0.00001712794437480625
0.62099999999999999645,-0.00001937941306096036
0.62150000000000005240,-0.00001977332613023464
0.62199999999999999734,-0.00001950682781171054
0.62250000000000005329,-0.00001970726225408725
0.62299999999999999822,-0.00002022799708356615
0.62350000000000005418,-0.00002085357300529722
0.62399999999999999911,-0.00002241572656203061
0.62450000000000005507,-0.00002428767402307130
0.62500000000000000000,-0.00002428957486699801
0.62549999999999994493,-0.00002245851283078082
0.62600000000000000089,-0.00002096683783747721
0.62649999999999994582,-0.00002061690793198068
0.62700000000000000178,-0.00002002924702537712
0.62749999999999994671,-0.00001866768252511974
0.62800000000000000266,-0.00001778373552951962
0.62849999999999994760,-0.00001694077218417078
0.62900000000000000355,-0.00001520342357252957
0.62949999999999994849,-0.00001466673620598158
0.63000000000000000444,-0.00001610573963262141
0.63049999999999994937,-0.00001686993346083909
0.63100000000000000533,-0.00001651174352446105
0.63149999999999995026,-0.00001705589420453180
0.63200000000000000622,-0.00001890142266347539
0.63249999999999995115,-0.00002120313365594484
0.63300000000000000711,-0.00002326480898773298
0.63349999999999995204,-0.00002463550299580674
0.63400000000000000799,-0.00002591178417787887
0.63449999999999995293,-0.00002821912858053111
0.63500000000000000888,-0.00003130934783257544
0.63549999999999995381,-0.00003386264506843872
0.63600000000000000977,-0.00003491694224067032
0.63649999999999995470,-0.00003348995596752502
0.63700000000000001066,-0.00002925640728790313
0.63749999999999995559,-0.00002413406400592066
0.63800000000000001155,-0.00002001241955440491
0.63849999999999995648,-0.00001704435089777689
0.63900000000000001243,-0.00001574211819388438
0.63949999999999995737,-0.00001667986362008378
0.64000000000000001332,-0.00001896654248412233
0.64049999999999995826,-0.00002160599251510575
0.64100000000000001421,-0.00002390536792518106
0.64149999999999995914,-0.00002456720540067181
0.64200000000000001510,-0.00002282112291140947
0.64249999999999996003,-0.00001939532376127318
0.64300000000000001599,-0.00001553251240693498
0.64349999999999996092,-0.00001224027892021695
0.64400000000000001688,-0.00001039079143083654
0.64449999999999996181,-0.00001047810019372264
0.64500000000000001776,-0.00001189702288684202
0.64549999999999996270,-0.00001347027318843175
0.64600000000000001865,-0.00001518635508546140
0.64649999999999996358,-0.00001761500789143611
0.64700000000000001954,-0.00002021528780460358
0.64749999999999996447,-0.00002245062751171645
0.64800000000000002043,-0.00002469004175509326
0.64849999999999996536,-0.00002687791493372060
0.64900000000000002132,-0.00002860793938452844
0.64949999999999996625,-0.00003000036667799577
0.65000000000000002220,-0.00003045722587557975
0.65049999999999996714,-0.00002896621845138725
0.65100000000000002309,-0.00002670579124242067
0.65149999999999996803,-0.00002562869485700503
0.65200000000000002398,-0.00002545392453612294
0.65249999999999996891,-0.00002505622614989989
0.65300000000000002487,-0.00002461490475980099
0.65349999999999996980,-0.00002465066972945351
0.65400000000000002576,-0.00002466512523824349
0.65449999999999997069,-0.00002426982973702252
0.65500000000000002665,-0.00002404050974291749
0.65549999999999997158,-0.00002394669900240842
0.65600000000000002753,-0.00002322487307537813
0.65649999999999997247,-0.00002240349385829177
0.65700000000000002842,-0.00002341712206543889
0.65749999999999997335,-0.00002674071038200054
0.65800000000000002931,-0.00002963899169117212
0.65849999999999997424,-0.00002945958476630040
0.65900000000000003020,-0.00002684529317775741
0.65949999999999997513,-0.00002367747765674721
0.66000000000000003109,-0.00002091196074616164
0.66049999999999997602,-0.00001912378502311185
0.66100000000000003197,-0.00001868051731435116
0.66149999999999997691,-0.00001942343078553677
0.66200000000000003286,-0.00002082176069961861
0.66249999999999997780,-0.00002213826701336074
0.66300000000000003375,-0.00002278112151543609
0.66349999999999997868,-0.00002267903983010910
0.66400000000000003464,-0.00002195782508351840
0.66449999999999997957,-0.00002071963353955653
0.66500000000000003553,-0.00001932106169988401
0.66549999999999998046,-0.00001824118044169154
0.66600000000000003642,-0.00001757340396579821
0.66649999999999998135,-0.00001676712781772949
0.66700000000000003730,-0.00001558433723403141
0.66749999999999998224,-0.00001510763468104415
0.66800000000000003819,-0.00001576412614667788
0.66849999999999998312,-0.00001582438926561736
0.66900000000000003908,-0.00001423689536750317
0.66949999999999998401,-0.00001241224344994407
0.67000000000000003997,-0.00001207450259244070
0.67049999999999998490,-0.00001329108090430964
0.67100000000000004086,-0.00001485534357925644
0.67149999999999998579,-0.00001592558510310482
0.67200000000000004174,-0.00001679624256212264
0.67249999999999998668,-0.00001820347642933484
0.67300000000000004263,-0.00002056160883512348
0.67349999999999998757,-0.00002380927980993874
0.67400000000000004352,-0.00002729875996010378
0.67449999999999998845,-0.00002974939161504153
0.67500000000000004441,-0.00003038493377971463
0.67549999999999998934,-0.00003000990363943856
0.67600000000000004530,-0.00002991460314660799
0.67649999999999999023,-0.00003088484663749114
0.67700000000000004619,-0.00003319074312457815
0.67749999999999999112,-0.00003563574500731193
0.67800000000000004707,-0.00003579824624466710
0.67849999999999999201,-0.00003240571822971106
0.67900000000000004796,-0.00002717386087169871
0.67949999999999999289,-0.00002371191294514574
0.68000000000000004885,-0.00002316171594429761
0.68049999999999999378,-0.00002333160227863118
0.68100000000000004974,-0.00002319194027222693
0.68149999999999999467,-0.00002333579868718516
0.68200000000000005063,-0.00002322346881555859
0.68249999999999999556,-0.00002223213778052014
0.68300000000000005151,-0.00002077742101391778
0.68349999999999999645,-0.00001921748662425671
0.68400000000000005240,-0.00001790887290553655
0.68449999999999999734,-0.00001742739004839677
0.68500000000000005329,-0.00001778604382707272
0.68549999999999999822,-0.00001852244895417243
0.68600000000000005418,-0.00001928443816723302
0.68649999999999999911,-0.00001980786146305036
0.68700000000000005507,-0.00002002311157411896
0.68750000000000000000,-0.00002006581780733541
0.68799999999999994493,-0.00001977274223463609
0.68850000000000000089,-0.00001904590317280963
0.68899999999999994582,-0.00001852097921073437
0.68950000000000000178,-0.00001903264092106837
0.68999999999999994671,-0.00002086513450194616
0.69050000000000000266,-0.00002276243321830407
0.69099999999999994760,-0.00002261863482999615
0.69150000000000000355,-0.00002091065834974870
0.69199999999999994849,-0.00002021567888732534
0.69250000000000000444,-0.00002070175105473026
0.69299999999999994937,-0.00002009413037740160
0.69350000000000000533,-0.00001770004564605188
0.69399999999999995026,-0.00001509338380856207
0.69450000000000000622,-0.00001336316654487746
0.69499999999999995115,-0.00001239062294189352
0.69550000000000000711,-0.00001213599716720637
0.69599999999999995204,-0.00001289864485443104
0.69650000000000000799,-0.00001459760915167862
0.69699999999999995293,-0.00001652589708101004
0.69750000000000000888,-0.00001815301584429108
0.69799999999999995381,-0.00001981950481422246
0.69850000000000000977,-0.00002249783574370667
0.69899999999999995470,-0.00002692922498681583
0.69950000000000001066,-0.00003222631494281814
0.69999999999999995559,-0.00003551908594090492
0.70050000000000001155,-0.00003462815584498458
0.70099999999999995648,-0.00003061497773160227
0.70150000000000001243,-0.00002634654083522037
0.70199999999999995737,-0.00002357537778152619
0.70250000000000001332,-0.00002208484511356801
0.70299999999999995826,-0.00002084046536765527
0.70350000000000001421,-0.00001899733797472436
0.70399999999999995914,-0.00001656725726206787
0.70450000000000001510,-0.00001501495898992289
0.70499999999999996003,-0.00001553436959511600
0.70550000000000001599,-0.00001728336610540282
0.70599999999999996092,-0.00001876558781077620
0.70650000000000001688,-0.00001950602018041536
0.70699999999999996181,-0.00002030699579336215
0.70750000000000001776,-0.00002201427014369983
0.70799999999999996270,-0.00002375954500166699
0.70850000000000001865,-0.00002433405097690411
0.70899999999999996358,-0.00002425122511340305
0.70950000000000001954,-0.00002419918018858880
0.70999999999999996447,-0.00002387509994150605
0.71050000000000002043,-0.00002320806743227877
0.71099999999999996536,-0.00002260520886920859
0.71150000000000002132,-0.00002213111656601541
0.71199999999999996625,-0.00002136966213583947
0.71250000000000002220,-0.00002021533146034927
0.71299999999999996714,-0.00001935315594892018
0.71350000000000002309,-0.00001949967008840758
0.71399999999999996803,-0.00002069373113045003
0.71450000000000002398,-0.00002245273572043516
0.71499999999999996891,-0.00002410256638540886
0.71550000000000002487,-0.00002513942490622867
0.71599999999999996980,-0.00002555894388933666
0.71650000000000002576,-0.00002513450817787088
0.71699999999999997069,-0.00002308077637280803
0.71750000000000002665,-0.00002041174411715474
0.71799999999999997158,-0.00001966426862054504
0.71850000000000002753,-0.00002071562994387932
0.71899999999999997247,-0.00002180727096856572
0.71950000000000002842,-0.00002295804551977198
0.71999999999999997335,-0.00002465405123075470
0.72050000000000002931,-0.00002716873314057011
0.72099999999999997424,-0.00003071155879297294
0.72150000000000003020,-0.00003357899549882859
0.72199999999999997513,-0.00003362869392731227
0.72250000000000003109,-0.00003137697058264166
0.72299999999999997602,-0.00002864280941139441
0.72350000000000003197,-0.00002611531999718864
0.72399999999999997691,-0.00002364295869483612
0.72450000000000003286,-0.00002143037090718281
0.72499999999999997780,-0.00001967440402950160
0.72550000000000003375,-0.00001766399327607360
0.72599999999999997868,-0.00001539091135782655
0.72650000000000003464,-0.00001458174028812209
0.72699999999999997957,-0.00001613613130757585
0.72750000000000003553,-0.00001876704118330963
0.72799999999999998046,-0.00002089058216370177
0.72850000000000003642,-0.00002227746881544590
0.72899999999999998135,-0.00002361316182941664
0.72950000000000003730,-0.00002513798062864226
0.72999999999999998224,-0.00002666092586878221
0.73050000000000003819,-0.00002829300137818791
0.73099999999999998312,-0.00002943760591733735
0.73150000000000003908,-0.00002886200309148990
0.73199999999999998401,-0.00002709808359213639
0.73250000000000003997,-0.00002568539821368176
0.73299999999999998490,-0.00002503959331079387
0.73350000000000004086,-0.00002512389073672239
0.73399999999999998579,-0.00002515693267923780
0.73450000000000004174,-0.00002340178616577759
0.73499999999999998668,-0.00001969286495295819
0.73550000000000004263,-0.00001604815224709455
0.73599999999999998757,-0.00001433449233445572
0.73650000000000004352,-0.00001475185399613110
0.73699999999999998845,-0.00001620589864614885
0.73750000000000004441,-0.00001776359567884356
0.73799999999999998934,-0.00001963295835594181
0.73850000000000004530,-0.00002198912989115342
0.73899999999999999023,-0.00002373843199166004
0.73950000000000004619,-0.00002428352308925241
0.73999999999999999112,-0.00002457714435877278
0.74050000000000004707,-0.00002479628528817557
0.74099999999999999201,-0.00002379901707172393
0.74150000000000004796,-0.00002145722828572616
0.74199999999999999289,-0.00001934724969032687
0.74250000000000004885,-0.00001861301643657498
0.74299999999999999378,-0.00001838930802477989
0.74350000000000004974,-0.00001749683360685594
0.74399999999999999467,-0.00001580729258421343
0.74450000000000005063,-0.00001370703466818668
0.74499999999999999556,-0.00001246118154085707
0.74550000000000005151,-0.00001335763408860657
0.74599999999999999645,-0.00001578100636834279
0.74650000000000005240,-0.00001778787736839149
0.74699999999999999734,-0.00001799119490897283
0.74750000000000005329,-0.00001708609124762006
0.74799999999999999822,-0.00001717183658911381
0.74850000000000005418,-0.00001863194302131888
0.74899999999999999911,-0.00001952110869751777
0.74950000000000005507,-0.00001840349432313815
0.75000000000000000000,-0.00001607868944120128
0.75049999999999994493,-0.00001419540512870299
0.75100000000000000089,-0.00001317808255407726
0.75149999999999994582,-0.00001238082950294484
0.75200000000000000178,-0.00001185585279017687
0.75249999999999994671,-0.00001297342078032670
0.75300000000000000266,-0.00001651755701459479
0.75349999999999994760,-0.00002138540185114834
0.75400000000000000355,-0.00002648355075507425
0.75449999999999994849,-0.00003181126157869585
0.75500000000000000444,-0.00003707837458932772
0.75549999999999994937,-0.00004121357778785750
0.75600000000000000533,-0.00004285993418307043
0.75649999999999995026,-0.00004124179031350650
0.75700000000000000622,-0.00003668671342893504
0.75749999999999995115,-0.00002903782842622604
0.75800000000000000711,-0.00001935105319716968
0.75849999999999995204,-0.00001247738691745326
0.75900000000000000799,-0.00001100870031223167
0.75949999999999995293,-0.00001244340091943741
0.76000000000000000888,-0.00001468351911171340
0.76049999999999995381,-0.00001650330341362860
0.76100000000000000977,-0.00001665670242800843
0.76149999999999995470,-0.00001611594234418590
0.76200000000000001066,-0.00001675864041317254
0.76249999999999995559,-0.00001869417610578239
0.76300000000000001155,-0.00002071521339530591
0.76349999999999995648,-0.00002195726301579271
0.76400000000000001243,-0.00002262921043438837
0.76449999999999995737,-0.00002357640187256039
0.76500000000000001332,-0.00002516939639463090
0.76549999999999995826,-0.00002657833465491422
0.76600000000000001421,-0.00002633439362398349
0.76649999999999995914,-0.00002395581032033078
0.76700000000000001510,-0.00002087651591864415
0.76749999999999996003,-0.00001916712426464074
0.76800000000000001599,-0.00001931512269948144
0.76849999999999996092,-0.00001998210973397363
0.76900000000000001688,-0.00002000496351683978
0.76949999999999996181,-0.00001908272133732680
0.77000000000000001776,-0.00001703479574644007
0.77049999999999996270,-0.00001493225136073306
0.77100000000000001865,-0.00001505165710113943
0.77149999999999996358,-0.00001759334918460809
0.77200000000000001954,-0.00002069686161121354
0.77249999999999996447,-0.00002376327574893367
0.77300000000000002043,-0.00002716707967920229
0.77349999999999996536,-0.00003008640851476230
0.77400000000000002132,-0.00003092995029874146
0.77449999999999996625,-0.00002883060005842708
0.77500000000000002220,-0.00002481274714227765
0.77549999999999996714,-0.00002166430022043642
0.77600000000000002309,-0.00002103577389789280
0.77649999999999996803,-0.00002145855796698015
0.77700000000000002398,-0.00002068710819003172
0.77749999999999996891,-0.00001874587724159938
0.77800000000000002487,-0.00001756281744746957
0.77849999999999996980,-0.00001798801895347424
0.77900000000000002576,-0.00001907226942421403
0.77949999999999997069,-0.00002016193320741877
0.78000000000000002665,-0.00002069913716695737
0.78049999999999997158,-0.00001945157418958843
0.78100000000000002753,-0.00001653251092648134
0.78149999999999997247,-0.00001394523042108631
0.78200000000000002842,-0.00001322326170338783
0.78249999999999997335,-0.00001395605704601621
0.78300000000000002931,-0.00001475278895668453
0.78349999999999997424,-0.00001498090841778321
0.78400000000000003020,-0.00001532503301859833
0.78449999999999997513,-0.00001754221011651680
0.78500000000000003109,-0.00002295711419719737
0.78549999999999997602,-0.00003007916711794678
0.78600000000000003197,-0.00003588181425584480
0.78649999999999997691,-0.00003915310662705451
0.78700000000000003286,-0.00003999504770035855
0.78749999999999997780,-0.00003828045737463981
0.78800000000000003375,-0.00003481549720163457
0.78849999999999997868,-0.00003212725277990103
0.78900000000000003464,-0.00003256377021898516
0.78949999999999997957,-0.00003526908039930277
0.79000000000000003553,-0.00003668763747555204
0.79049999999999998046,-0.00003513725459924899
0.79100000000000003642,-0.00003147205279674381
0.79149999999999998135,-0.00002607439637358766
0.79200000000000003730,-0.00001972824429685716
0.79249999999999998224,-0.00001443197288608644
0.79300000000000003819,-0.00001110573703044793
0.79349999999999998312,-0.00001014568442769814
0.79400000000000003908,-0.00001244362283614464
0.79449999999999998401,-0.00001698691448837053
0.79500000000000003997,-0.00002059977850876749
0.79549999999999998490,-0.00002111421235895250
0.79600000000000004086,-0.00001916881774377543
0.79649999999999998579,-0.00001711828372208402
0.79700000000000004174,-0.00001659349800320342
0.79749999999999998668,-0.00001717448867566418
0.79800000000000004263,-0.00001775007513060700
0.79849999999999998757,-0.00001849506770668086
0.79900000000000004352,-0.00002015505378949456
0.79949999999999998845,-0.00002260432302136905
0.80000000000000004441,-0.00002542363654356450
0.80049999999999998934,-0.00002774617314571515
0.80100000000000004530,-0.00002777311237878166
0.80149999999999999023,-0.00002513623439881485
0.80200000000000004619,-0.00002215600943600293
0.80249999999999999112,-0.00002103829319821671
0.80300000000000004707,-0.00002152734487026464
0.80349999999999999201,-0.00002207060970249585
0.80400000000000004796,-0.00002221118847955950
0.80449999999999999289,-0.00002242570917587727
0.80500000000000004885,-0.00002244578172394540
0.80549999999999999378,-0.00002174822475353722
0.80600000000000004974,-0.00002067561763396952
0.80649999999999999467,-0.00001988800795515999
0.80700000000000005063,-0.00001949560282810125
0.80749999999999999556,-0.00001918957241286989
0.80800000000000005151,-0.00001887970756797586
0.80849999999999999645,-0.00001844940743467305
0.80900000000000005240,-0.00001761336898198351
0.80949999999999999734,-0.00001696023173280992
0.81000000000000005329,-0.00001693068406893872
0.81049999999999999822,-0.00001617212546989322
0.81100000000000005418,-0.00001408418484061258
0.81149999999999999911,-0.00001231106034538243
0.81200000000000005507,-0.00001220230114995502
0.81250000000000000000,-0.00001368170160276350
0.81299999999999994493,-0.00001574799534864724
0.81350000000000000089,-0.00001751154559315182
0.81399999999999994582,-0.00001874723602668383
0.81450000000000000178,-0.00001917243935167789
0.81499999999999994671,-0.00001961803536687512
0.81550000000000000266,-0.00002173639586544596
0.81599999999999994760,-0.00002467918784532230
0.81650000000000000355,-0.00002676006079127546
0.81699999999999994849,-0.00002861029497580603
0.81750000000000000444,-0.00003051321618841030
0.81799999999999994937,-0.00003112443300778978
0.81850000000000000533,-0.00003022495548066217
0.81899999999999995026,-0.00002910939110734034
0.81950000000000000622,-0.00002894391036534216
0.81999999999999995115,-0.00002981490433739964
0.82050000000000000711,-0.00003047692007385194
0.82099999999999995204,-0.00002956307434942573
0.82150000000000000799,-0.00002730503547354601
0.82199999999999995293,-0.00002493686952220742
0.82250000000000000888,-0.00002290062548127026
0.82299999999999995381,-0.00002087460234179161
0.82350000000000000977,-0.00001894669185276143
0.82399999999999995470,-0.00001779514241206925
0.82450000000000001066,-0.00001748720205796417
0.82499999999999995559,-0.00001733161843731068
0.82550000000000001155,-0.00001788317240425386
0.82599999999999995648,-0.00002073930772894528
0.82650000000000001243,-0.00002550222052377649
0.82699999999999995737,-0.00002939603655249812
0.82750000000000001332,-0.00002997394221893046
0.82799999999999995826,-0.00002710912667680532
0.82850000000000001421,-0.00002315446545253508
0.82899999999999995914,-0.00002076844793919008
0.82950000000000001510,-0.00001997191975533497
0.82999999999999996003,-0.00001921468356158584
0.83050000000000001599,-0.00001834744216466788
0.83099999999999996092,-0.00001800816971808672
0.83150000000000001688,-0.00001786870234354865
0.83199999999999996181,-0.00001724695903249085
0.83250000000000001776,-0.00001652093851589598
0.83299999999999996270,-0.00001677536238275934
0.83350000000000001865,-0.00001811747461033519
0.83399999999999996358,-0.00001925454307638574
0.83450000000000001954,-0.00001914966014737729
0.83499999999999996447,-0.00001873489236459136
0.83550000000000002043,-0.00001977111605810933
0.83599999999999996536,-0.00002232014958281070
0.83650000000000002132,-0.00002485283584974241
0.83699999999999996625,-0.00002638962359924335
0.83750000000000002220,-0.00002736046553764026
0.83799999999999996714,-0.00002799136927933432
0.83850000000000002309,-0.00002737103022809606
0.83899999999999996803,-0.00002535179737606086
0.83950000000000002398,-0.00002297735591128003
0.83999999999999996891,-0.00002091938949888572
0.84050000000000002487,-0.00002002683686441742
0.84099999999999996980,-0.00002080230115097947
0.84150000000000002576,-0.00002154162757506128
0.84199999999999997069,-0.00002103957194776740
0.84250000000000002665,-0.00002063664032903034
0.84299999999999997158,-0.00002099551602441352
0.84350000000000002753,-0.00002094504634442274
0.84399999999999997247,-0.00001961451926035807
0.84450000000000002842,-0.00001718094608804677
0.84499999999999997335,-0.00001470355527999345
0.84550000000000002931,-0.00001364840682072099
0.84599999999999997424,-0.00001447962131351232
0.84650000000000003020,-0.00001626710218260996
0.84699999999999997513,-0.00001787669134500902
0.84750000000000003109,-0.00001847587191150524
0.84799999999999997602,-0.00001761489693308249
0.84850000000000003197,-0.00001602399242983665
0.84899999999999997691,-0.00001548872205603402
0.84950000000000003286,-0.00001713541496428661
0.84999999999999997780,-0.00002013436460401863
0.85050000000000003375,-0.00002293932629982010
0.85099999999999997868,-0.00002523522744013463
0.85150000000000003464,-0.00002695709918043576
0.85199999999999997957,-0.00002725511876633391
0.85250000000000003553,-0.00002624789703986607
0.85299999999999998046,-0.00002536078682169319
0.85350000000000003642,-0.00002528526601963677
0.85399999999999998135,-0.00002535447856644168
0.85450000000000003730,-0.00002509702790121083
0.85499999999999998224,-0.00002516408676456194
0.85550000000000003819,-0.00002594568286440335
0.85599999999999998312,-0.00002650333408382721
0.85650000000000003908,-0.00002548114935052581
0.85699999999999998401,-0.00002210299680882599
0.85750000000000003997,-0.00001738297032716218
0.85799999999999998490,-0.00001474307373428019
0.85850000000000004086,-0.00001622090530872811
0.85899999999999998579,-0.00001900126335385721
0.85950000000000004174,-0.00001924872776726261
0.85999999999999998668,-0.00001653566869208589
0.86050000000000004263,-0.00001298412280448247
0.86099999999999998757,-0.00001129423253587447
0.86150000000000004352,-0.00001315482040809002
0.86199999999999998845,-0.00001783045445336029
0.86250000000000004441,-0.00002288432369823568
0.86299999999999998934,-0.00002637057150423061
0.86350000000000004530,-0.00002809896977851167
0.86399999999999999023,-0.00002914871038228739
0.86450000000000004619,-0.00003038123213627841
0.86499999999999999112,-0.00003196633770130575
0.86550000000000004707,-0.00003395187377464026
0.86599999999999999201,-0.00003549003668013029
0.86650000000000004796,-0.00003554089926183224
0.86699999999999999289,-0.00003543800266925246
0.86750000000000004885,-0.00003639069473138079
0.86799999999999999378,-0.00003620455390773714
0.86850000000000004974,-0.00003214058597222902
0.86899999999999999467,-0.00002405475970590487
0.86950000000000005063,-0.00001554226764710620
0.86999999999999999556,-0.00001294581761612790
0.87050000000000005151,-0.00001789582893252373
0.87099999999999999645,-0.00002408989712421317
0.87150000000000005240,-0.00002663742452568840
0.87199999999999999734,-0.00002674478128028568
0.87250000000000005329,-0.00002617953032313380
0.87299999999999999822,-0.00002511070852051489
0.87350000000000005418,-0.00002351677903789096
0.87399999999999999911,-0.00002105312705680262
0.87450000000000005507,-0.00001743522807373665
0.87500000000000000000,-0.00001335883098363411
0.87549999999999994493,-0.00001015095040202141
0.87600000000000000089,-0.00000912233554117847
0.87649999999999994582,-0.00001113491180149140
0.87700000000000000178,-0.00001561488898005337
0.87749999999999994671,-0.00002023063825618010
0.87800000000000000266,-0.00002269825563416816
0.87849999999999994760,-0.00002302418943145312
0.87900000000000000355,-0.00002285043410665821
0.87949999999999994849,-0.00002278175088576972
0.88000000000000000444,-0.00002229224264738150
0.88049999999999994937,-0.00002113137452397496
0.88100000000000000533,-0.00001907906698761508
0.88149999999999995026,-0.00001707776209514122
0.88200000000000000622,-0.00001800621794245671
0.88249999999999995115,-0.00002232384213129989
0.88300000000000000711,-0.00002616561869217549
0.88349999999999995204,-0.00002651708564371802
0.88400000000000000799,-0.00002457001028233208
0.88449999999999995293,-0.00002307143768121023
0.88500000000000000888,-0.00002261193549202289
0.88549999999999995381,-0.00002207002034992911
0.88600000000000000977,-0.00002137108276656363
0.88649999999999995470,-0.00002120114004355855
0.88700000000000001066,-0.00002140953256457578
0.88749999999999995559,-0.00002122192381648347
0.88800000000000001155,-0.00001998307561734691
0.88849999999999995648,-0.00001790734313544817
0.88900000000000001243,-0.00001643817267904524
0.88949999999999995737,-0.00001673816404945683
0.89000000000000001332,-0.00001814866482163779
0.89049999999999995826,-0.00001916206565510947
0.89100000000000001421,-0.00001886174504761584
0.89149999999999995914,-0.00001724787580315024
0.89200000000000001510,-0.00001545281338621862
0.89249999999999996003,-0.00001507014167145826
0.89300000000000001599,-0.00001637939749343786
0.89349999999999996092,-0.00001758367034199182
0.89400000000000001688,-0.00001665837226028088
0.89449999999999996181,-0.00001439763764210511
0.89500000000000001776,-0.00001418247575202258
0.89549999999999996270,-0.00001831416921049822
0.89600000000000001865,-0.00002572609446360730
0.89649999999999996358,-0.00003359317634021863
0.89700000000000001954,-0.00004042955333716236
0.89749999999999996447,-0.00004569500379147939
0.89800000000000002043,-0.00004753591201733798
0.89849999999999996536,-0.00004397960583446547
0.89900000000000002132,-0.00003564561848179437
0.89949999999999996625,-0.00002570169090176933
0.90000000000000002220,-0.00001757362224452663
0.90049999999999996714,-0.00001318832801189274
0.90100000000000002309,-0.00001255216648132773
0.90149999999999996803,-0.00001417386010871269
0.90200000000000002398,-0.00001627880374144297
0.90249999999999996891,-0.00001802184488042258
0.90300000000000002487,-0.00001925634387589525
0.90349999999999996980,-0.00001957339918590151
0.90400000000000002576,-0.00001861151758930646
0.90449999999999997069,-0.00001712476296233945
0.90500000000000002665,-0.00001657994835113641
0.90549999999999997158,-0.00001742501262924634
0.90600000000000002753,-0.00001891974898171611
0.90649999999999997247,-0.00002014521305682138
0.90700000000000002842,-0.00002046544977929443
0.90749999999999997335,-0.00002016718281083740
0.90800000000000002931,-0.00001981924469873775
0.90849999999999997424,-0.00001935515683726408
0.90900000000000003020,-0.00001881146454252302
0.90949999999999997513,-0.00001779101512511261
0.91000000000000003109,-0.00001592445187270641
0.91049999999999997602,-0.00001528521534055471
0.91100000000000003197,-0.00001768860965967178
0.91149999999999997691,-0.00002101550307997968
0.91200000000000003286,-0.00002247598058602307
0.91249999999999997780,-0.00002217882683908101
0.91300000000000003375,-0.00002177289752580691
0.91349999999999997868,-0.00002218841291323770
0.91400000000000003464,-0.00002337110527150798
0.91449999999999997957,-0.00002530660640331917
0.91500000000000003553,-0.00002821197631419636
0.91549999999999998046,-0.00003127921081613749
0.91600000000000003642,-0.00003229534922866151
0.91649999999999998135,-0.00003045281482627615
0.91700000000000003730,-0.00002784692878776696
0.91749999999999998224,-0.00002582654451543931
0.91800000000000003819,-0.00002373751703999005
0.91849999999999998312,-0.00002187132122344338
0.91900000000000003908,-0.00002092418617394287
0.91949999999999998401,-0.00002001413304242305
0.92000000000000003997,-0.00001816319127101451
0.92049999999999998490,-0.00001560014607093763
0.92100000000000004086,-0.00001294495996262412
0.92149999999999998579,-0.00001100679764931556
0.92200000000000004174,-0.00001064931348082610
0.92249999999999998668,-0.00001185106521006674
0.92300000000000004263,-0.00001397981395712122
0.92349999999999998757,-0.00001675325074756984
0.92400000000000004352,-0.00002012895129155368
0.92449999999999998845,-0.00002345509165024851
0.92500000000000004441,-0.00002575952748884447
0.92549999999999998934,-0.00002734883491939399
0.92600000000000004530,-0.00002893578312068712
0.92649999999999999023,-0.00002950127236545086
0.92700000000000004619,-0.00002790471990010701
0.92749999999999999112,-0.00002497956666047685
0.92800000000000004707,-0.00002222428338427562
0.92849999999999999201,-0.00002030521500273608
0.92900000000000004796,-0.00001932913437485695
0.92949999999999999289,-0.00001929609970829915
0.93000000000000004885,-0.00001984514710784424
0.93049999999999999378,-0.00002012397635553497
0.93100000000000004974,-0.00001948914541571867
0.93149999999999999467,-0.00001818746932258364
0.93200000000000005063,-0.00001708401396172121
0.93249999999999999556,-0.00001673741644481197
0.93300000000000005151,-0.00001720158797979821
0.93349999999999999645,-0.00001855544724094216
0.93400000000000005240,-0.00002061532177322078
0.93449999999999999734,-0.00002261183544760570
0.93500000000000005329,-0.00002385245716141071
0.93549999999999999822,-0.00002420011151116342
0.93600000000000005418,-0.00002395629780949094
0.93649999999999999911,-0.00002352188130316791
0.93700000000000005507,-0.00002320109160791617
0.93750000000000000000,-0.00002316152858838905
0.93799999999999994493,-0.00002301551648997702
0.93850000000000000089,-0.00002228515586466528
0.93899999999999994582,-0.00002186048004659824
0.93950000000000000178,-0.00002307133036083541
0.93999999999999994671,-0.00002539929664635565
0.94050000000000000266,-0.00002704092003114056
0.94099999999999994760,-0.00002706019040488172
0.94150000000000000355,-0.00002603101711429190
0.94199999999999994849,-0.00002501181916159112
0.94250000000000000444,-0.00002417385076114443
0.94299999999999994937,-0.00002262642010464333
0.94350000000000000533,-0.00002001200118684210
0.94399999999999995026,-0.00001755429366312455
0.94450000000000000622,-0.00001649999467190355
0.94499999999999995115,-0.00001657827851886395
0.94550000000000000711,-0.00001676083593338262
0.94599999999999995204,-0.00001661750320636202
0.94650000000000000799,-0.00001659945519350003
0.94699999999999995293,-0.00001751115451043006
0.94750000000000000888,-0.00001967320713447407
0.94799999999999995381,-0.00002215701169916429
0.94850000000000000977,-0.00002330754068680108
0.94899999999999995470,-0.00002279377258673776
0.94950000000000001066,-0.00002234012208646163
0.94999999999999995559,-0.00002343123196624219
0.95050000000000001155,-0.00002545198367442936
0.95099999999999995648,-0.00002673562266863883
0.95150000000000001243,-0.00002643587686179671
0.95199999999999995737,-0.00002494450745871291
0.95250000000000001332,-0.00002278709871461615
0.95299999999999995826,-0.00002005157875828445
0.95350000000000001421,-0.00001688487827777863
0.95399999999999995914,-0.00001364843228657264
0.95450000000000001510,-0.00001118722138926387
0.95499999999999996003,-0.00001121464447351173
0.95550000000000001599,-0.00001508813784312224
0.95599999999999996092,-0.00002150714499293827
0.95650000000000001688,-0.00002651546128618065
0.95699999999999996181,-0.00002743809091043659
0.95750000000000001776,-0.00002578368730610237
0.95799999999999996270,-0.00002474232314852998
0.95850000000000001865,-0.00002575476537458598
0.95899999999999996358,-0.00002809459874697495
0.95950000000000001954,-0.00002990175380546134
0.95999999999999996447,-0.00002981222860398702
0.96050000000000002043,-0.00002835697523551062
0.96099999999999996536,-0.00002682806189113763
0.96150000000000002132,-0.00002531663812987972
0.96199999999999996625,-0.00002360643702559173
0.96250000000000002220,-0.00002241773836431094
0.96299999999999996714,-0.00002216204120486509
0.96350000000000002309,-0.00002201168535975739
0.96399999999999996803,-0.00002124265301972628
0.96450000000000002398,-0.00002055530967481900
0.96499999999999996891,-0.00002078053512377664
0.96550000000000002487,-0.00002143613346561324
0.96599999999999996980,-0.00002191739804402459
0.96650000000000002576,-0.00002237948501715437
0.96699999999999997069,-0.00002303882320120465
0.96750000000000002665,-0.00002401562960585579
0.96799999999999997158,-0.00002529610355850309
0.96850000000000002753,-0.00002643727384565864
0.96899999999999997247,-0.00002710984881559853
0.96950000000000002842,-0.00002736130591074470
0.96999999999999997335,-0.00002694855174922850
0.97050000000000002931,-0.00002579777719802223
0.97099999999999997424,-0.00002462203156028409
0.97150000000000003020,-0.00002370787842664868
0.97199999999999997513,-0.00002273515019624028
0.97250000000000003109,-0.00002203679287049454
0.97299999999999997602,-0.00002196208151872269
0.97350000000000003197,-0.00002155126458092127
0.97399999999999997691,-0.00001936002809088677
0.97450000000000003286,-0.00001593225351825822
0.97499999999999997780,-0.00001415336646459764
0.97550000000000003375,-0.00001580870048201177
0.97599999999999997868,-0.00001962387796083931
0.97650000000000003464,-0.00002331831274204887
0.97699999999999997957,-0.00002557080006226897
0.97750000000000003553,-0.00002609779221529607
0.97799999999999998046,-0.00002505133852537256
0.97850000000000003642,-0.00002267850868520327
0.97899999999999998135,-0.00001970459379663225
0.97950000000000003730,-0.00001753218566591386
0.97999999999999998224,-0.00001687067197053693
0.98050000000000003819,-0.00001678830449236557
0.98099999999999998312,-0.00001637755303818267
0.98150000000000003908,-0.00001583001358085312
0.98199999999999998401,-0.00001544065526104532
0.98250000000000003997,-0.00001544219048810191
0.98299999999999998490,-0.00001652747232583351
0.98350000000000004086,-0.00001943299685081002
0.98399999999999998579,-0.00002384006802458316
0.98450000000000004174,-0.00002805079202516936
0.98499999999999998668,-0.00003039057264686562
0.98550000000000004263,-0.00003028194623766467
0.98599999999999998757,-0.00002810023397614714
0.98650000000000004352,-0.00002539614069974050
0.98699999999999998845,-0.00002382918682997115
0.98750000000000004441,-0.00002315860911039636
0.98799999999999998934,-0.00002255354047520086
0.98850000000000004530,-0.00002222597504442092
0.98899999999999999023,-0.00002193349973822479
0.98950000000000004619,-0.00002083151775877923
0.98999999999999999112,-0.00001908517151605338
0.99050000000000004707,-0.00001765207707649097
0.99099999999999999201,-0.00001746020643622614
0.99150000000000004796,-0.00001921596776810475
0.99199999999999999289,-0.00002258224049001001
0.99250000000000004885,-0.00002568405216152314
0.99299999999999999378,-0.00002651421527843922
0.99350000000000004974,-0.00002489314829290379
0.99399999999999999467,-0.00002227006734756287
0.99450000000000005063,-0.00001943338975252118
0.99499999999999999556,-0.00001589773091836832
0.99550000000000005151,-0.00001147176499216584
0.99599999999999999645,-0.00000686795965521014
0.99650000000000005240,-0.00000384557006327668
0.99699999999999999734,-0.00000493365678266855
0.99750000000000005329,-0.00001008445724437479
0.99799999999999999822,-0.00001555861672386527
0.99850000000000005418,-0.00001928322853927967
0.99899999999999999911,-0.00002261055124108680
0.99950000000000005507,-0.00002598219180072192
1.00000000000000000000,-0.00002786895674944390
1.00049999999999994493,-0.00002762226904451382
1.00099999999999988987,-0.00002739428418863099
1.00150000000000005684,-0.00002912741729232948
1.00200000000000000178,-0.00003045648190891371
1.00249999999999994671,-0.00002817714630509727
1.00299999999999989164,-0.00002318139195267577
1.00350000000000005862,-0.00001842705751187168
1.00400000000000000355,-0.00001540091943752486
1.00449999999999994849,-0.00001423904723196756
1.00499999999999989342,-0.00001507895558461314
1.00550000000000006040,-0.00001765554043231532
1.00600000000000000533,-0.00002108979606418870
1.00649999999999995026,-0.00002535995918151457
1.00699999999999989519,-0.00003052480678888969
1.00750000000000006217,-0.00003486325658741407
1.00800000000000000711,-0.00003666570410132408
1.00849999999999995204,-0.00003593282599467784
1.00899999999999989697,-0.00003322853444842622
1.00950000000000006395,-0.00002974479684780817
1.01000000000000000888,-0.00002733826840994880
1.01049999999999995381,-0.00002601842243166175
1.01099999999999989875,-0.00002360342659812886
1.01150000000000006573,-0.00001882768992800266
1.01200000000000001066,-0.00001300595795328263
1.01249999999999995559,-0.00000823505615699105
1.01299999999999990052,-0.00000515038527737488
1.01350000000000006750,-0.00000343697183780023
1.01400000000000001243,-0.00000315447368848254
1.01449999999999995737,-0.00000468645157525316
1.01499999999999990230,-0.00000827637450129259
1.01550000000000006928,-0.00001358343342872104
1.01600000000000001421,-0.00001970217817870434
1.01649999999999995914,-0.00002545921961427666
1.01699999999999990408,-0.00002973816299345344
1.01750000000000007105,-0.00003236693737562746
1.01800000000000001599,-0.00003377715620445088
1.01849999999999996092,-0.00003349576218170114
1.01899999999999990585,-0.00003128140451735817
1.01950000000000007283,-0.00002864044290618040
1.02000000000000001776,-0.00002692228554224130
1.02049999999999996270,-0.00002652596958796494
1.02099999999999990763,-0.00002790247890516184
1.02150000000000007461,-0.00003015901893377304
1.02200000000000001954,-0.00003104265124420635
1.02249999999999996447,-0.00002988071173604112
1.02299999999999990941,-0.00002776979818008840
1.02350000000000007638,-0.00002556686013122089
1.02400000000000002132,-0.00002349173882976174
1.02449999999999996625,-0.00002157090420951135
1.02499999999999991118,-0.00001979636726900935
1.02550000000000007816,-0.00001816955591493752
1.02600000000000002309,-0.00001697644620435312
1.02649999999999996803,-0.00001680655077507254
1.02699999999999991296,-0.00001763696309353691
1.02750000000000007994,-0.00001851276283559855
1.02800000000000002487,-0.00001843889913288876
1.02849999999999996980,-0.00001749358852976002
1.02899999999999991473,-0.00001723112472973298
1.02950000000000008171,-0.00001890018575068098
1.03000000000000002665,-0.00002180576484533958
1.03049999999999997158,-0.00002456804577377625
1.03099999999999991651,-0.00002650287933647633
1.03150000000000008349,-0.00002746022801147774
1.03200000000000002842,-0.00002741227399383206
1.03249999999999997335,-0.00002608323666208889
1.03299999999999991829,-0.00002322178625036031
1.03350000000000008527,-0.00001952100683411118
1.03400000000000003020,-0.00001629321013751905
1.03449999999999997513,-0.00001455098299629754
1.03499999999999992006,-0.00001516752308816649
1.03550000000000008704,-0.00001769912523741368
1.03600000000000003197,-0.00001936955413839314
1.03649999999999997691,-0.00001886918107629754
1.03699999999999992184,-0.00001841584344219882
1.03750000000000008882,-0.00001954475192178506
1.03800000000000003375,-0.00002162079181289300
1.03849999999999997868,-0.00002401915116934106
1.03899999999999992362,-0.00002574763857410289
1.03950000000000009059,-0.00002563369343988598
1.04000000000000003553,-0.00002426731225568801
1.04049999999999998046,-0.00002271639823447913
1.04099999999999992539,-0.00002052825584542006
1.04150000000000009237,-0.00001778761725290678
1.04200000000000003730,-0.00001604031785973348
1.04249999999999998224,-0.00001551877539895941
1.04299999999999992717,-0.00001550358501845039
1.04350000000000009415,-0.00001630405859032180
1.04400000000000003908,-0.00001791809154383373
1.04449999999999998401,-0.00001963130125659518
1.04499999999999992895,-0.00002131710425601341
1.04550000000000009592,-0.00002305808447999880
1.04600000000000004086,-0.00002443659104756080
1.04649999999999998579,-0.00002508511170162819
1.04699999999999993072,-0.00002529373887227848
1.04750000000000009770,-0.00002512755418138113
1.04800000000000004263,-0.00002400493758614175
1.04849999999999998757,-0.00002263608803332318
1.04899999999999993250,-0.00002264155955344904
1.04950000000000009948,-0.00002354087700950913
1.05000000000000004441,-0.00002377477539994288
1.05049999999999998934,-0.00002349343776586466
1.05099999999999993427,-0.00002369114372413605
1.05150000000000010125,-0.00002433023655612487
1.05200000000000004619,-0.00002446317557769362
1.05249999999999999112,-0.00002359115205763374
1.05299999999999993605,-0.00002222057264589239
1.05350000000000010303,-0.00002105736530211288
1.05400000000000004796,-0.00002057169513136614
1.05449999999999999289,-0.00002111153298756108
1.05499999999999993783,-0.00002230706377304159
1.05550000000000010481,-0.00002300516462128144
1.05600000000000004974,-0.00002276249688293319
1.05649999999999999467,-0.00002234509520349093
1.05699999999999993960,-0.00002217207293142565
1.05750000000000010658,-0.00002184710137953516
1.05800000000000005151,-0.00002167734783142805
1.05849999999999999645,-0.00002235701322206296
1.05899999999999994138,-0.00002315878191438969
1.05950000000000010836,-0.00002326068715774455
1.06000000000000005329,-0.00002333044903934933
1.06049999999999999822,-0.00002368179229961243
1.06099999999999994316,-0.00002374420364503749
1.06150000000000011013,-0.00002368804234720301
1.06200000000000005507,-0.00002406480234640185
1.06250000000000000000,-0.00002467373451509047
1.06299999999999994493,-0.00002476939516782295
1.06349999999999988987,-0.00002372653216298204
1.06400000000000005684,-0.00002195787419623230
1.06450000000000000178,-0.00002118681004503742
1.06499999999999994671,-0.00002226569267804734
1.06549999999999989164,-0.00002366591616009828
1.06600000000000005862,-0.00002386642518104054
1.06650000000000000355,-0.00002320636667718645
1.06699999999999994849,-0.00002259475149912760
1.06749999999999989342,-0.00002180361479986459
1.06800000000000006040,-0.00001971407618839294
1.06850000000000000533,-0.00001720027103147004
1.06899999999999995026,-0.00001666808566369582
1.06949999999999989519,-0.00001773330041032750
1.07000000000000006217,-0.00001874092049547471
1.07050000000000000711,-0.00001994535341509618
1.07099999999999995204,-0.00002141464392479975
1.07149999999999989697,-0.00002272906021971721
1.07200000000000006395,-0.00002419356678728946
1.07250000000000000888,-0.00002518537985451985
1.07299999999999995381,-0.00002445447717036586
1.07349999999999989875,-0.00002231244252470788
1.07400000000000006573,-0.00002008183037105482
1.07450000000000001066,-0.00001855630034697242
1.07499999999999995559,-0.00001803560553526040
1.07549999999999990052,-0.00001886542850115802
1.07600000000000006750,-0.00002075477641483303
1.07650000000000001243,-0.00002213090374425519
1.07699999999999995737,-0.00002195025626861025
1.07749999999999990230,-0.00002090907946694642
1.07800000000000006928,-0.00001962752685358283
1.07850000000000001421,-0.00001781218452379107
1.07899999999999995914,-0.00001565442471473943
1.07949999999999990408,-0.00001436584352632053
1.08000000000000007105,-0.00001462441923649749
1.08050000000000001599,-0.00001539396362204570
1.08099999999999996092,-0.00001588520717632491
1.08149999999999990585,-0.00001735823752824217
1.08200000000000007283,-0.00002088012843159959
1.08250000000000001776,-0.00002511695129214786
1.08299999999999996270,-0.00002811416379699949
1.08349999999999990763,-0.00002940611557278316
1.08400000000000007461,-0.00002937849421869032
1.08450000000000001954,-0.00002836020212271251
1.08499999999999996447,-0.00002681551995920018
1.08549999999999990941,-0.00002518094515835401
1.08600000000000007638,-0.00002345766552025452
1.08650000000000002132,-0.00002176539783249609
1.08699999999999996625,-0.00002061014311038889
1.08749999999999991118,-0.00001997945037146565
1.08800000000000007816,-0.00001972715108422562
1.08850000000000002309,-0.00002036262048932258
1.08899999999999996803,-0.00002155201218556613
1.08949999999999991296,-0.00002211909668403678
1.09000000000000007994,-0.00002251155638077762
1.09050000000000002487,-0.00002417937139398418
1.09099999999999996980,-0.00002677570955711417
1.09149999999999991473,-0.00002834021324815694
1.09200000000000008171,-0.00002839674743881915
1.09250000000000002665,-0.00002851433600881137
1.09299999999999997158,-0.00002861789471353404
1.09349999999999991651,-0.00002707358726183884
1.09400000000000008349,-0.00002462278098391834
1.09450000000000002842,-0.00002250118086521979
1.09499999999999997335,-0.00001920890281326137
1.09549999999999991829,-0.00001451548087061383
1.09600000000000008527,-0.00001172288375528296
1.09650000000000003020,-0.00001231716760230484
1.09699999999999997513,-0.00001424046149622882
1.09749999999999992006,-0.00001585516656632535
1.09800000000000008704,-0.00001712049743218813
1.09850000000000003197,-0.00001884119046735577
1.09899999999999997691,-0.00002151148692064453
1.09949999999999992184,-0.00002354559910600074
1.10000000000000008882,-0.00002342227890039794
1.10050000000000003375,-0.00002234823296021204
1.10099999999999997868,-0.00002177697933802847
1.10149999999999992362,-0.00002173108987335581
1.10200000000000009059,-0.00002220054557255935
1.10250000000000003553,-0.00002286229391756933
1.10299999999999998046,-0.00002258173299196642
1.10349999999999992539,-0.00002079492514894810
1.10400000000000009237,-0.00001852772402344272
1.10450000000000003730,-0.00001739440813253168
1.10499999999999998224,-0.00001771237839420792
1.10549999999999992717,-0.00001872994653240312
1.10600000000000009415,-0.00002008297269640025
1.10650000000000003908,-0.00002149412830476649
1.10699999999999998401,-0.00002269716242153663
1.10749999999999992895,-0.00002413866604911163
1.10800000000000009592,-0.00002603794382594060
1.10850000000000004086,-0.00002774228232738096
1.10899999999999998579,-0.00002828875039995182
1.10949999999999993072,-0.00002733001929300372
1.11000000000000009770,-0.00002613957440189552
1.11050000000000004263,-0.00002587318522273563
1.11099999999999998757,-0.00002603428220027126
1.11149999999999993250,-0.00002646816392370965
1.11200000000000009948,-0.00002765490171441343
1.11250000000000004441,-0.00002872317782021128
1.11299999999999998934,-0.00002793286512314808
1.11349999999999993427,-0.00002542687616369222
1.11400000000000010125,-0.00002317661892448086
1.11450000000000004619,-0.00002157490962417796
1.11499999999999999112,-0.00001998308653128334
1.11549999999999993605,-0.00001981324930966366
1.11600000000000010303,-0.00002247800148325041
1.11650000000000004796,-0.00002674184179340955
1.11699999999999999289,-0.00003032741551578511
1.11749999999999993783,-0.00003154099613311701
1.11800000000000010481,-0.00002972965012304485
1.11850000000000004974,-0.00002574968857516069
1.11899999999999999467,-0.00002103186125168577
1.11949999999999993960,-0.00001609108039701823
1.12000000000000010658,-0.00001096944470191374
1.12050000000000005151,-0.00000745622583053773
1.12099999999999999645,-0.00000850402557261987
1.12149999999999994138,-0.00001338495439995313
1.12200000000000010836,-0.00001793999035726301
1.12250000000000005329,-0.00001977845749934204
1.12299999999999999822,-0.00001883249751699623
1.12349999999999994316,-0.00001683136906649452
1.12400000000000011013,-0.00001655958840274252
1.12450000000000005507,-0.00001815081668610219
1.12500000000000000000,-0.00001937047090905253
1.12549999999999994493,-0.00001941489063028712
1.12599999999999988987,-0.00001923698619066272
1.12650000000000005684,-0.00001970120865735226
1.12700000000000000178,-0.00002101071731885895
1.12749999999999994671,-0.00002265650437038857
1.12799999999999989164,-0.00002361798760830425
1.12850000000000005862,-0.00002367837805650197
1.12900000000000000355,-0.00002376028896833304
1.12949999999999994849,-0.00002405311715847347
1.12999999999999989342,-0.00002370465153944678
1.13050000000000006040,-0.00002263913665956352
1.13100000000000000533,-0.00002157037488359492
1.13149999999999995026,-0.00002081108505080920
1.13199999999999989519,-0.00002022065928031225
1.13250000000000006217,-0.00001965867522812914
1.13300000000000000711,-0.00001921348302857950
1.13349999999999995204,-0.00001913727282953914
1.13399999999999989697,-0.00001979845183086582
1.13450000000000006395,-0.00002145447615475859
1.13500000000000000888,-0.00002301251515746117
1.13549999999999995381,-0.00002229225901828613
1.13599999999999989875,-0.00001936632543220185
1.13650000000000006573,-0.00001704977148619946
1.13700000000000001066,-0.00001685867027845234
1.13749999999999995559,-0.00001769440677890088
1.13799999999999990052,-0.00001858222094597295
1.13850000000000006750,-0.00002002758265007287
1.13900000000000001243,-0.00002276289524161257
1.13949999999999995737,-0.00002611338641145266
1.13999999999999990230,-0.00002787756238831207
1.14050000000000006928,-0.00002680123179743532
1.14100000000000001421,-0.00002423214755253866
1.14149999999999995914,-0.00002211681567132473
1.14199999999999990408,-0.00002163386125175748
1.14250000000000007105,-0.00002348426278331317
1.14300000000000001599,-0.00002671653601282742
1.14349999999999996092,-0.00002885272988351062
1.14399999999999990585,-0.00002875521022360772
1.14450000000000007283,-0.00002788201709336136
1.14500000000000001776,-0.00002805050462484360
1.14549999999999996270,-0.00002888446033466607
1.14599999999999990763,-0.00002905789369833656
1.14650000000000007461,-0.00002863464942493010
1.14700000000000001954,-0.00002793288695102092
1.14749999999999996447,-0.00002676386793609709
1.14799999999999990941,-0.00002570366450527217
1.14850000000000007638,-0.00002532894905016292
1.14900000000000002132,-0.00002469518949510530
1.14949999999999996625,-0.00002212540312029887
1.14999999999999991118,-0.00001731716838548891
1.15050000000000007816,-0.00001215980591950938
1.15100000000000002309,-0.00000908201218408067
1.15149999999999996803,-0.00000877723323355895
1.15199999999999991296,-0.00000959423687163508
1.15250000000000007994,-0.00000899694987310795
1.15300000000000002487,-0.00000606787170909229
1.15349999999999996980,-0.00000273173100140411
1.15399999999999991473,-0.00000178971617970092
1.15450000000000008171,-0.00000436717527918518
1.15500000000000002665,-0.00000993855246633757
1.15549999999999997158,-0.00001684544076852035
1.15599999999999991651,-0.00002295267404406331
1.15650000000000008349,-0.00002773531559796539
1.15700000000000002842,-0.00003210133945685811
1.15749999999999997335,-0.00003578036921680905
1.15799999999999991829,-0.00003736154394573532
1.15850000000000008527,-0.00003665098847704939
1.15900000000000003020,-0.00003534657662385143
1.15949999999999997513,-0.00003514246418490075
1.15999999999999992006,-0.00003583589932532050
1.16050000000000008704,-0.00003589609696064144
1.16100000000000003197,-0.00003445189213380218
1.16149999999999997691,-0.00003219068457838148
1.16199999999999992184,-0.00002966222564282362
1.16250000000000008882,-0.00002565353861427866
1.16300000000000003375,-0.00002047148154815659
1.16349999999999997868,-0.00001789845009625424
1.16399999999999992362,-0.00001945825169968884
1.16450000000000009059,-0.00002202197720180266
1.16500000000000003553,-0.00002296851744176820
1.16549999999999998046,-0.00002233637314930093
1.16599999999999992539,-0.00002112563561240677
1.16650000000000009237,-0.00002042048072325997
1.16700000000000003730,-0.00002053833486570511
1.16749999999999998224,-0.00002076416058116592
1.16799999999999992717,-0.00002044680513790809
1.16850000000000009415,-0.00001956865344254766
1.16900000000000003908,-0.00001854130277934019
1.16949999999999998401,-0.00001789985617506318
1.16999999999999992895,-0.00001772508403519168
1.17050000000000009592,-0.00001753266224113759
1.17100000000000004086,-0.00001692103978712112
1.17149999999999998579,-0.00001590088504599407
1.17199999999999993072,-0.00001500187772762729
1.17250000000000009770,-0.00001525775769550819
1.17300000000000004263,-0.00001689312557573430
1.17349999999999998757,-0.00001855604023148771
1.17399999999999993250,-0.00001916272594826296
1.17450000000000009948,-0.00001910702485474758
1.17500000000000004441,-0.00001910601167764980
1.17549999999999998934,-0.00001934050669660792
1.17599999999999993427,-0.00001967770549526904
1.17650000000000010125,-0.00001986511961149517
1.17700000000000004619,-0.00001977770079975016
1.17749999999999999112,-0.00001968385549844242
1.17799999999999993605,-0.00001973546568478923
1.17850000000000010303,-0.00001970850644283928
1.17900000000000004796,-0.00001942220114869997
1.17949999999999999289,-0.00001845094448071904
1.17999999999999993783,-0.00001663373222982045
1.18050000000000010481,-0.00001543315556773450
1.18100000000000004974,-0.00001650388912821654
1.18149999999999999467,-0.00001963228714885190
1.18199999999999993960,-0.00002378714088990819
1.18250000000000010658,-0.00002818187385855708
1.18300000000000005151,-0.00003173611548845656
1.18349999999999999645,-0.00003327675221953541
1.18399999999999994138,-0.00003248238135711290
1.18450000000000010836,-0.00002999180833285209
1.18500000000000005329,-0.00002660987411218230
1.18549999999999999822,-0.00002309872616024223
1.18599999999999994316,-0.00002046217741735745
1.18650000000000011013,-0.00001925835022120737
1.18700000000000005507,-0.00001906419674924109
1.18750000000000000000,-0.00001932850682351273
1.18799999999999994493,-0.00002017770384554751
1.18849999999999988987,-0.00002196501009166241
1.18900000000000005684,-0.00002400456469331402
1.18950000000000000178,-0.00002528403820178937
1.18999999999999994671,-0.00002655390380823519
1.19049999999999989164,-0.00002840676643245388
1.19100000000000005862,-0.00002882964327000082
1.19150000000000000355,-0.00002609249713714235
1.19199999999999994849,-0.00002195353044953663
1.19249999999999989342,-0.00001971634264918976
1.19300000000000006040,-0.00001953708306245971
1.19350000000000000533,-0.00001842731580836698
1.19399999999999995026,-0.00001519524994364474
1.19449999999999989519,-0.00001158373925136402
1.19500000000000006217,-0.00001019741557684028
1.19550000000000000711,-0.00001373596023768187
1.19599999999999995204,-0.00002183074138883967
1.19649999999999989697,-0.00002912308082159143
1.19700000000000006395,-0.00003096759246545844
1.19750000000000000888,-0.00002805420081131160
1.19799999999999995381,-0.00002366560693189967
1.19849999999999989875,-0.00002001727079914417
1.19900000000000006573,-0.00001732395685394295
1.19950000000000001066,-0.00001465353943785885
1.19999999999999995559,-0.00001224181596626295
1.20049999999999990052,-0.00001212683218909660
1.20100000000000006750,-0.00001502707073086640
1.20150000000000001243,-0.00001895904279081151
1.20199999999999995737,-0.00002192452302551828
1.20249999999999990230,-0.00002320556268387008
1.20300000000000006928,-0.00002256667721667327
1.20350000000000001421,-0.00002067462264676578
1.20399999999999995914,-0.00001900225288409274
1.20449999999999990408,-0.00001841579069150612
1.20500000000000007105,-0.00001947699820448179
1.20550000000000001599,-0.00002255405888718087
1.20599999999999996092,-0.00002643369225552306
1.20649999999999990585,-0.00002932290590251796
1.20700000000000007283,-0.00003088809899054468
1.20750000000000001776,-0.00003180975181749091
1.20799999999999996270,-0.00003234169344068505
1.20849999999999990763,-0.00003268788714194670
1.20900000000000007461,-0.00003408193879295141
1.20950000000000001954,-0.00003612484215409495
1.20999999999999996447,-0.00003459240906522609
1.21049999999999990941,-0.00002663865780050401
1.21100000000000007638,-0.00001565807178849354
1.21150000000000002132,-0.00000790187550592236
1.21199999999999996625,-0.00000616772831563139
1.21249999999999991118,-0.00000843278303364059
1.21300000000000007816,-0.00001186708232125966
1.21350000000000002309,-0.00001554476875753608
1.21399999999999996803,-0.00001938864079420455
1.21449999999999991296,-0.00002295055128342938
1.21500000000000007994,-0.00002563257476140279
1.21550000000000002487,-0.00002733059409365524
1.21599999999999996980,-0.00002782850970106665
1.21649999999999991473,-0.00002621180647111032
1.21700000000000008171,-0.00002267581658088602
1.21750000000000002665,-0.00001908329613797832
1.21799999999999997158,-0.00001572602741362061
1.21849999999999991651,-0.00001074545616575051
1.21900000000000008349,-0.00000519556442668545
1.21950000000000002842,-0.00000440733947471017
1.21999999999999997335,-0.00001103207341657253
1.22049999999999991829,-0.00002079298792523332
1.22100000000000008527,-0.00002743071127042640
1.22150000000000003020,-0.00002906583176809363
1.22199999999999997513,-0.00002843557012965903
1.22249999999999992006,-0.00002821203088387847
1.22300000000000008704,-0.00002844881055352744
1.22350000000000003197,-0.00002798597233777400
1.22399999999999997691,-0.00002598263745312579
1.22449999999999992184,-0.00002274934922752436
1.22500000000000008882,-0.00001971526035049465
1.22550000000000003375,-0.00001811904621717986
1.22599999999999997868,-0.00001825437539082487
1.22649999999999992362,-0.00001976335443032440
1.22700000000000009059,-0.00002139054413419217
1.22750000000000003553,-0.00002172818312828895
1.22799999999999998046,-0.00002166743252018932
1.22849999999999992539,-0.00002335871067771222
1.22900000000000009237,-0.00002652600414876360
1.22950000000000003730,-0.00002899540959333535
1.22999999999999998224,-0.00002961272548418492
1.23049999999999992717,-0.00002859600317606237
1.23100000000000009415,-0.00002629736445669550
1.23150000000000003908,-0.00002316708742000628
1.23199999999999998401,-0.00002072635470540263
1.23249999999999992895,-0.00002078702345897909
1.23300000000000009592,-0.00002347889494558330
1.23350000000000004086,-0.00002711496927076951
1.23399999999999998579,-0.00002991672590724193
1.23449999999999993072,-0.00003150776319671422
1.23500000000000009770,-0.00003227715569664724
1.23550000000000004263,-0.00003226564876968041
1.23599999999999998757,-0.00003170043419231661
1.23649999999999993250,-0.00003061570532736368
1.23700000000000009948,-0.00002805026088026352
1.23750000000000004441,-0.00002393517752352636
1.23799999999999998934,-0.00002000406675506383
1.23849999999999993427,-0.00001767181493050884
1.23900000000000010125,-0.00001725033871480264
1.23950000000000004619,-0.00001819771205191500
1.23999999999999999112,-0.00001870860978669953
1.24049999999999993605,-0.00001753310243657324
1.24100000000000010303,-0.00001551042805658653
1.24150000000000004796,-0.00001323151809629053
1.24199999999999999289,-0.00001057838744600304
1.24249999999999993783,-0.00000875020487001166
1.24300000000000010481,-0.00000950244339037454
1.24350000000000004974,-0.00001384172537655104
1.24399999999999999467,-0.00002020710780925583
1.24449999999999993960,-0.00002418190160824452
1.24500000000000010658,-0.00002456010224705096
1.24550000000000005151,-0.00002513208892196417
1.24599999999999999645,-0.00002791737460938748
1.24649999999999994138,-0.00003106951771769673
1.24700000000000010836,-0.00003272017784183845
1.24750000000000005329,-0.00003220745566068217
1.24799999999999999822,-0.00002921844134107232
1.24849999999999994316,-0.00002445509562676307
1.24900000000000011013,-0.00001976553176064044
1.24950000000000005507,-0.00001641359631321393
1.25000000000000000000,-0.00001472848271077964
1.25049999999999994493,-0.00001522725324321072
1.25099999999999988987,-0.00001824174069042783
1.25150000000000005684,-0.00002294411387993023
1.25200000000000000178,-0.00002783786840154790
1.25249999999999994671,-0.00003164278314216062
1.25299999999999989164,-0.00003340358671266586
1.25350000000000005862,-0.00003269386070314795
1.25400000000000000355,-0.00003033940447494388
1.25449999999999994849,-0.00002777629379124846
1.25499999999999989342,-0.00002503964424249716
1.25550000000000006040,-0.00002129778295056894
1.25600000000000000533,-0.00001717565464787185
1.25649999999999995026,-0.00001464088563807309
1.25699999999999989519,-0.00001458184578950750
1.25750000000000006217,-0.00001471291852794820
1.25800000000000000711,-0.00001197180790768471
1.25849999999999995204,-0.00000733815659259562
1.25899999999999989697,-0.00000486221415485488
1.25950000000000006395,-0.00000685146460455144
1.26000000000000000888,-0.00001253306436410639
1.26049999999999995381,-0.00001948177850863430
1.26099999999999989875,-0.00002496279739716556
1.26150000000000006573,-0.00002725122067204211
1.26200000000000001066,-0.00002622005013108719
1.26249999999999995559,-0.00002326096910110209
1.26299999999999990052,-0.00002101283644151408
1.26350000000000006750,-0.00002083991057588719
1.26400000000000001243,-0.00002094494448101614
1.26449999999999995737,-0.00001948260069184471
1.26499999999999990230,-0.00001641534618102014
1.26550000000000006928,-0.00001159454495791579
1.26600000000000001421,-0.00000604235719947610
1.26649999999999995914,-0.00000282345718005672
1.26699999999999990408,-0.00000297805490845349
1.26750000000000007105,-0.00000461897980130743
1.26800000000000001599,-0.00000648166133032646
1.26849999999999996092,-0.00000895200719241984
1.26899999999999990585,-0.00001262755631614709
1.26950000000000007283,-0.00001722537126624957
1.27000000000000001776,-0.00002230376776424237
1.27049999999999996270,-0.00002828767355822492
1.27099999999999990763,-0.00003311489126645029
1.27150000000000007461,-0.00003312691114842892
1.27200000000000001954,-0.00003064419070142321
1.27249999999999996447,-0.00002998594573000446
1.27299999999999990941,-0.00003017503513547127
1.27350000000000007638,-0.00002992712143168319
1.27400000000000002132,-0.00002992803274537437
1.27449999999999996625,-0.00002954566480184440
1.27499999999999991118,-0.00002819237488438375
1.27550000000000007816,-0.00002644030064402613
