Time,Sensor 5.IM EMG5
0.00000000000000000000,-0.00000540829523743014
0.00050000000000000001,-0.00000456629277323373
0.00100000000000000002,-0.00000350906884705182
0.00150000000000000003,-0.00000259708053818031
0.00200000000000000004,-0.00000228182398132049
0.00250000000000000005,-0.00000264042341768800
0.00300000000000000006,-0.00000259094804277993
0.00350000000000000007,-0.00000211685983231291
0.00400000000000000008,-0.00000265467087956495
0.00449999999999999966,-0.00000385705743610743
0.00500000000000000010,-0.00000433743571193190
0.00549999999999999968,-0.00000407999914386892
0.00600000000000000012,-0.00000323185486195143
0.00649999999999999970,-0.00000195604252439807
0.00700000000000000015,-0.00000148421463563864
0.00749999999999999972,-0.00000246088211497408
0.00800000000000000017,-0.00000360609669769474
0.00850000000000000061,-0.00000341158079208981
0.00899999999999999932,-0.00000228340354624379
0.00949999999999999976,-0.00000176087155523419
0.01000000000000000021,-0.00000210367375075293
0.01050000000000000065,-0.00000275595562015951
0.01099999999999999936,-0.00000390068453270942
0.01149999999999999981,-0.00000543513715456356
0.01200000000000000025,-0.00000610206006967928
0.01250000000000000069,-0.00000508139555677189
0.01299999999999999940,-0.00000368532141692413
0.01349999999999999985,-0.00000359342948286212
0.01400000000000000029,-0.00000401669149141526
0.01450000000000000074,-0.00000384667555408669
0.01499999999999999944,-0.00000413820407629828
0.01549999999999999989,-0.00000518034721608274
0.01600000000000000033,-0.00000528992313775234
0.01650000000000000078,-0.00000406880053560599
0.01700000000000000122,-0.00000313364239445946
0.01750000000000000167,-0.00000353289806298562
0.01799999999999999864,-0.00000460219280284946
0.01849999999999999908,-0.00000522655091117485
0.01899999999999999953,-0.00000517835314894910
0.01949999999999999997,-0.00000505873094880371
0.02000000000000000042,-0.00000509107803736697
0.02050000000000000086,-0.00000468668440589681
0.02100000000000000130,-0.00000377034348275629
0.02149999999999999828,-0.00000318886009154085
0.02199999999999999872,-0.00000329494537254504
0.02249999999999999917,-0.00000339442499353027
0.02299999999999999961,-0.00000290307434624992
0.02350000000000000006,-0.00000224699670070549
0.02400000000000000050,-0.00000186913700872537
0.02450000000000000094,-0.00000132094407945260
0.02500000000000000139,-0.00000032038633435150
0.02549999999999999836,0.00000063142135786620
0.02599999999999999881,0.00000104964783531614
0.02649999999999999925,0.00000084580301518145
0.02699999999999999969,0.00000010641088010743
0.02750000000000000014,-0.00000098500902367959
0.02800000000000000058,-0.00000210571374736901
0.02850000000000000103,-0.00000299701764561178
0.02900000000000000147,-0.00000355532642970502
0.02949999999999999845,-0.00000375890567738679
0.02999999999999999889,-0.00000391221601603320
0.03049999999999999933,-0.00000420004971601884
0.03099999999999999978,-0.00000393815616916982
0.03150000000000000022,-0.00000256122098107880
0.03200000000000000067,-0.00000111983422357298
0.03250000000000000111,-0.00000119454216473969
0.03300000000000000155,-0.00000246832814809750
0.03350000000000000200,-0.00000318238789986935
0.03400000000000000244,-0.00000256932889897143
0.03450000000000000289,-0.00000146003367262892
0.03500000000000000333,-0.00000115026512048644
0.03549999999999999684,-0.00000225475673687470
0.03599999999999999728,-0.00000427358691013069
0.03649999999999999772,-0.00000575485046283575
0.03699999999999999817,-0.00000527337670064298
0.03749999999999999861,-0.00000344316595146665
0.03799999999999999906,-0.00000265754829342768
0.03849999999999999950,-0.00000366340873370063
0.03899999999999999994,-0.00000509458095621085
0.03950000000000000039,-0.00000613918928138446
0.04000000000000000083,-0.00000666004598315340
0.04050000000000000128,-0.00000611873019806808
0.04100000000000000172,-0.00000430444879384595
0.04150000000000000216,-0.00000187673856544279
0.04200000000000000261,0.00000069370605615404
0.04250000000000000305,0.00000311444364342606
0.04299999999999999656,0.00000408634559789789
0.04349999999999999700,0.00000287350485450588
0.04399999999999999745,0.00000086479144556506
0.04449999999999999789,-0.00000053023353530079
0.04499999999999999833,-0.00000114789554572781
0.04549999999999999878,-0.00000093858699301563
0.04599999999999999922,0.00000016894159671210
0.04649999999999999967,0.00000163508173045557
0.04700000000000000011,0.00000249853815148526
0.04750000000000000056,0.00000196798691831646
0.04800000000000000100,-0.00000001215846623381
0.04850000000000000144,-0.00000263527022070775
0.04900000000000000189,-0.00000499172710988205
0.04950000000000000233,-0.00000684604492562357
0.05000000000000000278,-0.00000821936737338547
0.05050000000000000322,-0.00000890773117134813
0.05099999999999999672,-0.00000960502529778751
0.05149999999999999717,-0.00001175372290163068
0.05199999999999999761,-0.00001491984221502207
0.05249999999999999806,-0.00001710617652861401
0.05299999999999999850,-0.00001762063584465068
0.05349999999999999895,-0.00001700971733953338
0.05399999999999999939,-0.00001572811743244529
0.05449999999999999983,-0.00001424172296538018
0.05500000000000000028,-0.00001260901080968324
0.05550000000000000072,-0.00001015293946693418
0.05600000000000000117,-0.00000753455105950707
0.05650000000000000161,-0.00000650668425805634
0.05700000000000000205,-0.00000625838947598822
0.05750000000000000250,-0.00000505050638821558
0.05800000000000000294,-0.00000359054592991015
0.05850000000000000339,-0.00000265571225099848
0.05899999999999999689,-0.00000200652630155673
0.05949999999999999734,-0.00000191097228707804
0.05999999999999999778,-0.00000231050717047765
0.06049999999999999822,-0.00000288559954242373
0.06099999999999999867,-0.00000399544569518184
0.06149999999999999911,-0.00000528754844708601
0.06199999999999999956,-0.00000560219041290111
0.06250000000000000000,-0.00000487536362925312
0.06300000000000000044,-0.00000390376362702227
0.06350000000000000089,-0.00000320663184538716
0.06400000000000000133,-0.00000303525962408457
0.06450000000000000178,-0.00000308447124552913
0.06500000000000000222,-0.00000259528360402328
0.06550000000000000266,-0.00000155554198499885
0.06600000000000000311,-0.00000072183422616945
0.06650000000000000355,-0.00000033796408160924
0.06700000000000000400,0.00000018702368720369
0.06750000000000000444,0.00000119157914468815
0.06800000000000000488,0.00000203935132958577
0.06850000000000000533,0.00000195145435100130
0.06900000000000000577,0.00000103892102742975
0.06950000000000000622,0.00000048806913355293
0.07000000000000000666,0.00000114183899313502
0.07049999999999999323,0.00000198136217477440
0.07099999999999999367,0.00000224680297833402
0.07149999999999999412,0.00000279564414995548
0.07199999999999999456,0.00000351429275724513
0.07249999999999999500,0.00000340350811711687
0.07299999999999999545,0.00000269798601948423
0.07349999999999999589,0.00000200955196305586
0.07399999999999999634,0.00000126112081488827
0.07449999999999999678,0.00000034848528684961
0.07499999999999999722,-0.00000047242696155081
0.07549999999999999767,-0.00000098697637440637
0.07599999999999999811,-0.00000133167645799404
0.07649999999999999856,-0.00000174757769855205
0.07699999999999999900,-0.00000235315133068070
0.07749999999999999944,-0.00000317040121444734
0.07799999999999999989,-0.00000386633064408670
0.07850000000000000033,-0.00000405555965699023
0.07900000000000000078,-0.00000419073103330447
0.07950000000000000122,-0.00000467067184217740
0.08000000000000000167,-0.00000469556835014373
0.08050000000000000211,-0.00000388711441701162
0.08100000000000000255,-0.00000334913715960283
0.08150000000000000300,-0.00000391832554669236
0.08200000000000000344,-0.00000492832896270556
0.08250000000000000389,-0.00000530801571585471
0.08300000000000000433,-0.00000522039090355975
0.08350000000000000477,-0.00000544766544408049
0.08400000000000000522,-0.00000572273393117939
0.08450000000000000566,-0.00000534445689481799
0.08500000000000000611,-0.00000455000417787232
0.08550000000000000655,-0.00000413372890761821
0.08599999999999999312,-0.00000434649336966686
0.08649999999999999356,-0.00000478723541164072
0.08699999999999999400,-0.00000512964243171155
0.08749999999999999445,-0.00000522686332260491
0.08799999999999999489,-0.00000471032899440615
0.08849999999999999534,-0.00000331396040564869
0.08899999999999999578,-0.00000175451555151085
0.08949999999999999623,-0.00000142359397159453
0.08999999999999999667,-0.00000242580290432670
0.09049999999999999711,-0.00000338924587595102
0.09099999999999999756,-0.00000374496835320315
0.09149999999999999800,-0.00000409749873142573
0.09199999999999999845,-0.00000472505143989110
0.09249999999999999889,-0.00000538982931175269
0.09299999999999999933,-0.00000598233646087465
0.09349999999999999978,-0.00000659366196487099
0.09400000000000000022,-0.00000716151498636464
0.09450000000000000067,-0.00000744581348044449
0.09500000000000000111,-0.00000740480300009949
0.09550000000000000155,-0.00000692674393576453
0.09600000000000000200,-0.00000562193145015044
0.09650000000000000244,-0.00000422477842221269
0.09700000000000000289,-0.00000437059634350589
0.09750000000000000333,-0.00000564598894925439
0.09800000000000000377,-0.00000603120361120091
0.09850000000000000422,-0.00000527693555341102
0.09900000000000000466,-0.00000482446739624720
0.09950000000000000511,-0.00000538449103260064
0.10000000000000000555,-0.00000629581609246088
0.10050000000000000600,-0.00000648331570118899
0.10100000000000000644,-0.00000556758686798275
0.10150000000000000688,-0.00000446299691247987
0.10199999999999999345,-0.00000464254799226183
0.10249999999999999389,-0.00000611937957728514
0.10299999999999999434,-0.00000706721357346396
0.10349999999999999478,-0.00000657555938232690
0.10399999999999999523,-0.00000582980374019826
0.10449999999999999567,-0.00000573298757444718
0.10499999999999999611,-0.00000570997417526087
0.10549999999999999656,-0.00000511647522216663
0.10599999999999999700,-0.00000437342532677576
0.10649999999999999745,-0.00000415380327467574
0.10699999999999999789,-0.00000413137422583532
0.10749999999999999833,-0.00000361775437340839
0.10799999999999999878,-0.00000298463669423654
0.10849999999999999922,-0.00000333782281813910
0.10899999999999999967,-0.00000474735861644149
0.10950000000000000011,-0.00000587069462198997
0.11000000000000000056,-0.00000539884513273137
0.11050000000000000100,-0.00000359027580998372
0.11100000000000000144,-0.00000250487983066705
0.11150000000000000189,-0.00000338684822054347
0.11200000000000000233,-0.00000471084786113352
0.11250000000000000278,-0.00000472558213004959
0.11300000000000000322,-0.00000409832955483580
0.11350000000000000366,-0.00000425477173848776
0.11400000000000000411,-0.00000459606917502242
0.11450000000000000455,-0.00000373724083146953
0.11500000000000000500,-0.00000221724735638418
0.11550000000000000544,-0.00000161917671448464
0.11600000000000000588,-0.00000220083734348009
0.11650000000000000633,-0.00000267710470325255
0.11700000000000000677,-0.00000196475457414635
0.11749999999999999334,-0.00000073031208103203
0.11799999999999999378,-0.00000069813455638723
0.11849999999999999423,-0.00000202979344976484
0.11899999999999999467,-0.00000309902247863647
0.11949999999999999512,-0.00000366461426892783
0.11999999999999999556,-0.00000475918886877480
0.12049999999999999600,-0.00000587576687394176
0.12099999999999999645,-0.00000610179495197372
0.12149999999999999689,-0.00000583846576773794
0.12199999999999999734,-0.00000555210726815858
0.12249999999999999778,-0.00000527461133970064
0.12299999999999999822,-0.00000522849904882605
0.12349999999999999867,-0.00000553022255189717
0.12399999999999999911,-0.00000571353257328155
0.12449999999999999956,-0.00000516345971846022
0.12500000000000000000,-0.00000402918385589146
0.12550000000000000044,-0.00000311090843752027
0.12600000000000000089,-0.00000280040489997191
0.12650000000000000133,-0.00000284458951682609
0.12700000000000000178,-0.00000311079656967195
0.12750000000000000222,-0.00000389929664379451
0.12800000000000000266,-0.00000490995080326684
0.12850000000000000311,-0.00000498311783303507
0.12900000000000000355,-0.00000397027451981558
0.12950000000000000400,-0.00000301045315609372
0.13000000000000000444,-0.00000263011975221161
0.13050000000000000488,-0.00000253334337685374
0.13100000000000000533,-0.00000258148929788149
0.13150000000000000577,-0.00000285077112494037
0.13200000000000000622,-0.00000335016193275806
0.13250000000000000666,-0.00000407929201173829
0.13300000000000000711,-0.00000507440745423082
0.13350000000000000755,-0.00000566962899029022
0.13400000000000000799,-0.00000445935847892542
0.13450000000000000844,-0.00000143545980790805
0.13500000000000000888,0.00000116078524570185
0.13550000000000000933,0.00000138957727813249
0.13600000000000000977,-0.00000014574237638953
0.13650000000000001021,-0.00000162467836162250
0.13700000000000001066,-0.00000239657742895361
0.13750000000000001110,-0.00000255343070421077
0.13800000000000001155,-0.00000211116025639058
0.13850000000000001199,-0.00000174401134245272
0.13900000000000001243,-0.00000210747180062754
0.13950000000000001288,-0.00000271012117991631
0.14000000000000001332,-0.00000275986258202465
0.14050000000000001377,-0.00000226617112275562
0.14099999999999998646,-0.00000209319568966748
0.14149999999999998690,-0.00000326866802424775
0.14199999999999998734,-0.00000567377810511971
0.14249999999999998779,-0.00000755013070374844
0.14299999999999998823,-0.00000758112264520605
0.14349999999999998868,-0.00000667009089738713
0.14399999999999998912,-0.00000606401408731472
0.14449999999999998956,-0.00000578527942707296
0.14499999999999999001,-0.00000587284421271761
0.14549999999999999045,-0.00000667110634822166
0.14599999999999999090,-0.00000792409446148667
0.14649999999999999134,-0.00000888999147719005
0.14699999999999999178,-0.00000884965629666112
0.14749999999999999223,-0.00000757527504902100
0.14799999999999999267,-0.00000584517101742676
0.14849999999999999312,-0.00000487232318846509
0.14899999999999999356,-0.00000496700886287726
0.14949999999999999400,-0.00000542885481991107
0.14999999999999999445,-0.00000539999882676057
0.15049999999999999489,-0.00000437215931015089
0.15099999999999999534,-0.00000265968719759258
0.15149999999999999578,-0.00000142209194109455
0.15199999999999999623,-0.00000149589277498308
0.15249999999999999667,-0.00000242167288888595
0.15299999999999999711,-0.00000301105501421262
0.15349999999999999756,-0.00000274339708994375
0.15399999999999999800,-0.00000235283664551389
0.15449999999999999845,-0.00000283117151411716
0.15499999999999999889,-0.00000376945013158547
0.15549999999999999933,-0.00000362367632078531
0.15599999999999999978,-0.00000217800470636575
0.15650000000000000022,-0.00000085260666082831
0.15700000000000000067,-0.00000048269953367708
0.15750000000000000111,-0.00000083181066656834
0.15800000000000000155,-0.00000149130676163622
0.15850000000000000200,-0.00000216522721530055
0.15900000000000000244,-0.00000285427609014732
0.15950000000000000289,-0.00000348966273122642
0.16000000000000000333,-0.00000324271877616411
0.16050000000000000377,-0.00000171692727235495
0.16100000000000000422,-0.00000016710555428290
0.16150000000000000466,0.00000021707813857574
0.16200000000000000511,-0.00000051537756462494
0.16250000000000000555,-0.00000209504332815413
0.16300000000000000600,-0.00000379685434381827
0.16350000000000000644,-0.00000443343878941960
0.16400000000000000688,-0.00000418150466430234
0.16450000000000000733,-0.00000411337487093988
0.16500000000000000777,-0.00000422846278524958
0.16550000000000000822,-0.00000404825732402969
0.16600000000000000866,-0.00000346311799148680
0.16650000000000000910,-0.00000231703734243638
0.16700000000000000955,-0.00000100751253739872
0.16750000000000000999,-0.00000073883404638764
0.16800000000000001044,-0.00000193575692719605
0.16850000000000001088,-0.00000324790880767978
0.16900000000000001132,-0.00000317206149702542
0.16950000000000001177,-0.00000235100173995306
0.17000000000000001221,-0.00000196598148249905
0.17050000000000001266,-0.00000118723039577162
0.17100000000000001310,0.00000020945856249455
0.17150000000000001354,0.00000024470671178278
0.17199999999999998623,-0.00000175079105702025
0.17249999999999998668,-0.00000390258537663613
0.17299999999999998712,-0.00000449434310212382
0.17349999999999998757,-0.00000391335152016836
0.17399999999999998801,-0.00000382558209821582
0.17449999999999998845,-0.00000491880336994654
0.17499999999999998890,-0.00000617545174463885
0.17549999999999998934,-0.00000637617995380424
0.17599999999999998979,-0.00000556598297407618
0.17649999999999999023,-0.00000478499623568496
0.17699999999999999067,-0.00000496266784466570
0.17749999999999999112,-0.00000608416576142190
0.17799999999999999156,-0.00000695282778906403
0.17849999999999999201,-0.00000651226491754642
0.17899999999999999245,-0.00000548957950741169
0.17949999999999999289,-0.00000526108078702237
0.17999999999999999334,-0.00000573159468331141
0.18049999999999999378,-0.00000596182235312881
0.18099999999999999423,-0.00000568840960113448
0.18149999999999999467,-0.00000521517540619243
0.18199999999999999512,-0.00000477959383715643
0.18249999999999999556,-0.00000435860238212626
0.18299999999999999600,-0.00000385784323952976
0.18349999999999999645,-0.00000342086218552140
0.18399999999999999689,-0.00000336254925059620
0.18449999999999999734,-0.00000376525099454739
0.18499999999999999778,-0.00000460614364783396
0.18549999999999999822,-0.00000603661919740262
0.18599999999999999867,-0.00000743321879781433
0.18649999999999999911,-0.00000745003580959747
0.18699999999999999956,-0.00000625242319074459
0.18750000000000000000,-0.00000532620742887957
0.18800000000000000044,-0.00000507677850691834
0.18850000000000000089,-0.00000501973227073904
0.18900000000000000133,-0.00000523888866155175
0.18950000000000000178,-0.00000612718758929987
0.19000000000000000222,-0.00000723508355804370
0.19050000000000000266,-0.00000734078867026255
0.19100000000000000311,-0.00000608514346822631
0.19150000000000000355,-0.00000460677847513580
0.19200000000000000400,-0.00000407554625780904
0.19250000000000000444,-0.00000441005977336317
0.19300000000000000488,-0.00000487745592181454
0.19350000000000000533,-0.00000516102818437503
0.19400000000000000577,-0.00000510369864059612
0.19450000000000000622,-0.00000436839809481171
0.19500000000000000666,-0.00000300580722978339
0.19550000000000000711,-0.00000160846980179485
0.19600000000000000755,-0.00000068206838932383
0.19650000000000000799,-0.00000019172489373886
0.19700000000000000844,-0.00000008816709851089
0.19750000000000000888,-0.00000076084387501396
0.19800000000000000933,-0.00000201821399059554
0.19850000000000000977,-0.00000279736559605226
0.19900000000000001021,-0.00000261259697253990
0.19950000000000001066,-0.00000183035251666297
0.20000000000000001110,-0.00000093436034376282
0.20050000000000001155,-0.00000053083067541593
0.20100000000000001199,-0.00000083886033053204
0.20150000000000001243,-0.00000132170600863901
0.20200000000000001288,-0.00000190242042208411
0.20250000000000001332,-0.00000283668987322017
0.20300000000000001377,-0.00000335795743922063
0.20349999999999998646,-0.00000278548418464197
0.20399999999999998690,-0.00000184935765901173
0.20449999999999998734,-0.00000187653267857968
0.20499999999999998779,-0.00000333220577886095
0.20549999999999998823,-0.00000498564622830600
0.20599999999999998868,-0.00000555656652068137
0.20649999999999998912,-0.00000537102232556208
0.20699999999999998956,-0.00000491861601403798
0.20749999999999999001,-0.00000396707582694944
0.20799999999999999045,-0.00000252390486821241
0.20849999999999999090,-0.00000109411439552787
0.20899999999999999134,-0.00000056686843663556
0.20949999999999999178,-0.00000148339927363850
0.20999999999999999223,-0.00000265092830886715
0.21049999999999999267,-0.00000276452192338184
0.21099999999999999312,-0.00000278502920991741
0.21149999999999999356,-0.00000359704154107021
0.21199999999999999400,-0.00000430398495154805
0.21249999999999999445,-0.00000456577208751696
0.21299999999999999489,-0.00000464283539258759
0.21349999999999999534,-0.00000403708236262901
0.21399999999999999578,-0.00000274783860731986
0.21449999999999999623,-0.00000163873664860148
0.21499999999999999667,-0.00000122811559322145
0.21549999999999999711,-0.00000178543427864497
0.21599999999999999756,-0.00000316122714139055
0.21649999999999999800,-0.00000420003561885096
0.21699999999999999845,-0.00000436940445069922
0.21749999999999999889,-0.00000465950779471314
0.21799999999999999933,-0.00000535546996616176
0.21849999999999999978,-0.00000562066543352557
0.21900000000000000022,-0.00000541513145435601
0.21950000000000000067,-0.00000508716357217054
0.22000000000000000111,-0.00000457948863186175
0.22050000000000000155,-0.00000434955472883303
0.22100000000000000200,-0.00000491716536998865
0.22150000000000000244,-0.00000564524862056714
0.22200000000000000289,-0.00000546931914868765
0.22250000000000000333,-0.00000453357415608480
0.22300000000000000377,-0.00000395882625525701
0.22350000000000000422,-0.00000387186264561024
0.22400000000000000466,-0.00000369105418940308
0.22450000000000000511,-0.00000379556604457321
0.22500000000000000555,-0.00000431195212513558
0.22550000000000000600,-0.00000434771482105134
0.22600000000000000644,-0.00000383208453058614
0.22650000000000000688,-0.00000343240481015528
0.22700000000000000733,-0.00000328002261085203
0.22750000000000000777,-0.00000351033213519258
0.22800000000000000822,-0.00000430317913924227
0.22850000000000000866,-0.00000500423902849434
0.22900000000000000910,-0.00000466541587229585
0.22950000000000000955,-0.00000329674253407575
0.23000000000000000999,-0.00000190723108062230
0.23050000000000001044,-0.00000144563057347113
0.23100000000000001088,-0.00000215752629628696
0.23150000000000001132,-0.00000347799459632370
0.23200000000000001177,-0.00000428674957220210
0.23250000000000001221,-0.00000417005730923847
0.23300000000000001266,-0.00000384579016099451
0.23350000000000001310,-0.00000380196343030548
0.23400000000000001354,-0.00000388312901122845
0.23449999999999998623,-0.00000420722244598437
0.23499999999999998668,-0.00000471028579340782
0.23549999999999998712,-0.00000427234635935747
0.23599999999999998757,-0.00000267836549028289
0.23649999999999998801,-0.00000183133431619353
0.23699999999999998845,-0.00000277985191132757
0.23749999999999998890,-0.00000440279654867481
0.23799999999999998934,-0.00000542184352525510
0.23849999999999998979,-0.00000496738812216790
0.23899999999999999023,-0.00000305591061078303
0.23949999999999999067,-0.00000155712871219293
0.23999999999999999112,-0.00000180438667030103
0.24049999999999999156,-0.00000264139430328214
0.24099999999999999201,-0.00000298664258480130
0.24149999999999999245,-0.00000338510358233179
0.24199999999999999289,-0.00000426849919676897
0.24249999999999999334,-0.00000501250542583875
0.24299999999999999378,-0.00000497559221912525
0.24349999999999999423,-0.00000449657636636402
0.24399999999999999467,-0.00000422719494963530
0.24449999999999999512,-0.00000428918019679259
0.24499999999999999556,-0.00000469129827251891
0.24549999999999999600,-0.00000531356090505142
0.24599999999999999645,-0.00000563619914828450
0.24649999999999999689,-0.00000555105998500949
0.24699999999999999734,-0.00000549641799807432
0.24749999999999999778,-0.00000549625110579655
0.24799999999999999822,-0.00000517099761054851
0.24849999999999999867,-0.00000447797765446012
0.24899999999999999911,-0.00000385226439902908
0.24949999999999999956,-0.00000384173836209811
0.25000000000000000000,-0.00000464717822978855
0.25050000000000000044,-0.00000583177097723819
0.25100000000000000089,-0.00000640552480035694
0.25150000000000000133,-0.00000568481209484162
0.25200000000000000178,-0.00000450015613751020
0.25250000000000000222,-0.00000423315714215278
0.25300000000000000266,-0.00000453579286840977
0.25350000000000000311,-0.00000419615889768465
0.25400000000000000355,-0.00000346774322679266
0.25450000000000000400,-0.00000349971060131793
0.25500000000000000444,-0.00000422307721237303
0.25550000000000000488,-0.00000432107435699436
0.25600000000000000533,-0.00000349619767803233
0.25650000000000000577,-0.00000273391310656734
0.25700000000000000622,-0.00000222207950173470
0.25750000000000000666,-0.00000136363564706699
0.25800000000000000711,0.00000003417318339416
0.25850000000000000755,0.00000135042625970527
0.25900000000000000799,0.00000152340112435922
0.25950000000000000844,0.00000052891874702254
0.26000000000000000888,-0.00000088652609520068
0.26050000000000000933,-0.00000260410115515697
0.26100000000000000977,-0.00000445696832684916
0.26150000000000001021,-0.00000596423069509910
0.26200000000000001066,-0.00000691882951286971
0.26250000000000001110,-0.00000697447285347153
0.26300000000000001155,-0.00000626394148639520
0.26350000000000001199,-0.00000603929765929934
0.26400000000000001243,-0.00000683425605529919
0.26450000000000001288,-0.00000746086789149558
0.26500000000000001332,-0.00000667070662530023
0.26550000000000001377,-0.00000458430167782353
0.26600000000000001421,-0.00000246066065301420
0.26650000000000001465,-0.00000153823009441112
0.26700000000000001510,-0.00000210161715585855
0.26750000000000001554,-0.00000326027998198697
0.26800000000000001599,-0.00000346155661645753
0.26850000000000001643,-0.00000203262356990308
0.26900000000000001688,-0.00000014830413874733
0.26950000000000001732,0.00000056327615993723
0.27000000000000001776,-0.00000005398459279604
0.27050000000000001821,-0.00000078391929037025
0.27100000000000001865,-0.00000109932000214030
0.27150000000000001910,-0.00000195626535060001
0.27200000000000001954,-0.00000356929194822442
0.27250000000000001998,-0.00000486252884002170
0.27300000000000002043,-0.00000580485857426538
0.27350000000000002087,-0.00000709222740624682
0.27400000000000002132,-0.00000806892785476521
0.27450000000000002176,-0.00000734717468731105
0.27500000000000002220,-0.00000459353941550944
0.27550000000000002265,-0.00000134150252506515
0.27600000000000002309,-0.00000010689149121390
0.27650000000000002354,-0.00000106390859855310
0.27700000000000002398,-0.00000163363370120351
0.27750000000000002442,-0.00000131410354242689
0.27800000000000002487,-0.00000181967516255099
0.27850000000000002531,-0.00000273552586804726
0.27900000000000002576,-0.00000289771583084075
0.27950000000000002620,-0.00000307081518258201
0.28000000000000002665,-0.00000413067937188316
0.28050000000000002709,-0.00000572336784898653
0.28100000000000002753,-0.00000715560690878192
0.28149999999999997247,-0.00000816739702713676
0.28199999999999997291,-0.00000865290894580539
0.28249999999999997335,-0.00000831095712783281
0.28299999999999997380,-0.00000743431155569851
0.28349999999999997424,-0.00000690899651090149
0.28399999999999997469,-0.00000688256795911002
0.28449999999999997513,-0.00000682194377077394
0.28499999999999997558,-0.00000651472464596736
0.28549999999999997602,-0.00000619168804405490
0.28599999999999997646,-0.00000607906486038701
0.28649999999999997691,-0.00000593627373746131
0.28699999999999997735,-0.00000531531713932054
0.28749999999999997780,-0.00000423087521994603
0.28799999999999997824,-0.00000311730445901048
0.28849999999999997868,-0.00000249504819294089
0.28899999999999997913,-0.00000250053471972933
0.28949999999999997957,-0.00000252196969086071
0.28999999999999998002,-0.00000227059217650094
0.29049999999999998046,-0.00000234027129408787
0.29099999999999998090,-0.00000267846530732641
0.29149999999999998135,-0.00000286660269921413
0.29199999999999998179,-0.00000341259215019818
0.29249999999999998224,-0.00000392378979086061
0.29299999999999998268,-0.00000304543732454476
0.29349999999999998312,-0.00000144721821015992
0.29399999999999998357,-0.00000054322663345374
0.29449999999999998401,-0.00000004830656052945
0.29499999999999998446,0.00000012416047923125
0.29549999999999998490,-0.00000072722860977592
0.29599999999999998535,-0.00000202987939701416
0.29649999999999998579,-0.00000224406176130287
0.29699999999999998623,-0.00000088647345819481
0.29749999999999998668,0.00000094281506335392
0.29799999999999998712,0.00000175311049588345
0.29849999999999998757,0.00000095771724772931
0.29899999999999998801,-0.00000049338143526256
0.29949999999999998845,-0.00000125959104479989
0.29999999999999998890,-0.00000164606944963452
0.30049999999999998934,-0.00000244466446019942
0.30099999999999998979,-0.00000315135685013956
0.30149999999999999023,-0.00000350739583154791
0.30199999999999999067,-0.00000428350949732703
0.30249999999999999112,-0.00000560785520065110
0.30299999999999999156,-0.00000652043945592595
0.30349999999999999201,-0.00000679759159538662
0.30399999999999999245,-0.00000750690605855198
0.30449999999999999289,-0.00000882824770087609
0.30499999999999999334,-0.00000954211554926587
0.30549999999999999378,-0.00000888713657332119
0.30599999999999999423,-0.00000702461920809583
0.30649999999999999467,-0.00000493691231895355
0.30699999999999999512,-0.00000430448426413932
0.30749999999999999556,-0.00000534667742613237
0.30799999999999999600,-0.00000619878164798138
0.30849999999999999645,-0.00000594562743572169
0.30899999999999999689,-0.00000534546416020021
0.30949999999999999734,-0.00000465452649223153
0.30999999999999999778,-0.00000360887315764558
0.31049999999999999822,-0.00000245333831117023
0.31099999999999999867,-0.00000161728462444444
0.31149999999999999911,-0.00000136300207032036
0.31199999999999999956,-0.00000176380785887886
0.31250000000000000000,-0.00000226840347750112
0.31300000000000000044,-0.00000205654055207560
0.31350000000000000089,-0.00000149287131989695
0.31400000000000000133,-0.00000191593653653399
0.31450000000000000178,-0.00000333167236021836
0.31500000000000000222,-0.00000411025803259690
0.31550000000000000266,-0.00000384299755751272
0.31600000000000000311,-0.00000367135862688883
0.31650000000000000355,-0.00000346745900969836
0.31700000000000000400,-0.00000270519694822724
0.31750000000000000444,-0.00000248861169893644
0.31800000000000000488,-0.00000329296176460048
0.31850000000000000533,-0.00000393714208257734
0.31900000000000000577,-0.00000383128781322739
0.31950000000000000622,-0.00000342506200468051
0.32000000000000000666,-0.00000316370483233186
0.32050000000000000711,-0.00000315971192321740
0.32100000000000000755,-0.00000304608147416729
0.32150000000000000799,-0.00000254477185990254
0.32200000000000000844,-0.00000241502493736334
0.32250000000000000888,-0.00000324402526530321
0.32300000000000000933,-0.00000404993033953360
0.32350000000000000977,-0.00000399714826926356
0.32400000000000001021,-0.00000363467233910342
0.32450000000000001066,-0.00000350589493791631
0.32500000000000001110,-0.00000336903781317233
0.32550000000000001155,-0.00000292882555186225
0.32600000000000001199,-0.00000267961286226637
0.32650000000000001243,-0.00000299251905744313
0.32700000000000001288,-0.00000290489015242201
0.32750000000000001332,-0.00000205305173039960
0.32800000000000001377,-0.00000168290046076436
0.32850000000000001421,-0.00000224475024879212
0.32900000000000001465,-0.00000295333484245930
0.32950000000000001510,-0.00000324146481034404
0.33000000000000001554,-0.00000289363242700347
0.33050000000000001599,-0.00000225311600843270
0.33100000000000001643,-0.00000233410287364677
0.33150000000000001688,-0.00000355474185198545
0.33200000000000001732,-0.00000507477261635358
0.33250000000000001776,-0.00000575368949284893
0.33300000000000001821,-0.00000519189370606910
0.33350000000000001865,-0.00000389353590435348
0.33400000000000001910,-0.00000270729628937261
0.33450000000000001954,-0.00000223030565393856
0.33500000000000001998,-0.00000241658790400834
0.33550000000000002043,-0.00000247470893555146
0.33600000000000002087,-0.00000178116442839382
0.33650000000000002132,-0.00000077805128739783
0.33700000000000002176,-0.00000022769025065372
0.33750000000000002220,-0.00000034210174248983
0.33800000000000002265,-0.00000097436304713483
0.33850000000000002309,-0.00000164775440225640
0.33900000000000002354,-0.00000186084798770025
0.33950000000000002398,-0.00000202771821022907
0.34000000000000002442,-0.00000277262483905361
0.34050000000000002487,-0.00000348013668372005
0.34100000000000002531,-0.00000325467863149242
0.34150000000000002576,-0.00000267501786765934
0.34200000000000002620,-0.00000310147288473672
0.34250000000000002665,-0.00000436001027992461
0.34300000000000002709,-0.00000483729945699451
0.34350000000000002753,-0.00000415758086091955
0.34399999999999997247,-0.00000364403763342125
0.34449999999999997291,-0.00000418695390180801
0.34499999999999997335,-0.00000518900105817011
0.34549999999999997380,-0.00000557167277293047
0.34599999999999997424,-0.00000508434914081590
0.34649999999999997469,-0.00000420387050326099
0.34699999999999997513,-0.00000335078198077099
0.34749999999999997558,-0.00000277418234873039
0.34799999999999997602,-0.00000285348664874618
0.34849999999999997646,-0.00000390822833651328
0.34899999999999997691,-0.00000552761275685043
0.34949999999999997735,-0.00000666819050820777
0.34999999999999997780,-0.00000656756947137183
0.35049999999999997824,-0.00000531518753632554
0.35099999999999997868,-0.00000404749926019576
0.35149999999999997913,-0.00000421591721533332
0.35199999999999997957,-0.00000562772765988484
0.35249999999999998002,-0.00000685663553667837
0.35299999999999998046,-0.00000788075703894719
0.35349999999999998090,-0.00000916901353775756
0.35399999999999998135,-0.00000976883438852383
0.35449999999999998179,-0.00000911219467525370
0.35499999999999998224,-0.00000796883341536159
0.35549999999999998268,-0.00000688681257088319
0.35599999999999998312,-0.00000583534529141616
0.35649999999999998357,-0.00000483373651150032
0.35699999999999998401,-0.00000398172642235295
0.35749999999999998446,-0.00000316140494760475
0.35799999999999998490,-0.00000220963420360931
0.35849999999999998535,-0.00000152167535816261
0.35899999999999998579,-0.00000163913364303880
0.35949999999999998623,-0.00000234076082961110
0.35999999999999998668,-0.00000307273762700788
0.36049999999999998712,-0.00000346770866599400
0.36099999999999998757,-0.00000321971333505644
0.36149999999999998801,-0.00000273940258921357
0.36199999999999998845,-0.00000299673797599098
0.36249999999999998890,-0.00000377199444301368
0.36299999999999998934,-0.00000394051130570006
0.36349999999999998979,-0.00000350484333466738
0.36399999999999999023,-0.00000351756375494006
0.36449999999999999067,-0.00000424864765591337
0.36499999999999999112,-0.00000468113921670010
0.36549999999999999156,-0.00000441381507698679
0.36599999999999999201,-0.00000440134999735164
0.36649999999999999245,-0.00000471899329568259
0.36699999999999999289,-0.00000435559650213690
0.36749999999999999334,-0.00000346285764862841
0.36799999999999999378,-0.00000304915511151194
0.36849999999999999423,-0.00000308895096168271
0.36899999999999999467,-0.00000259799799096072
0.36949999999999999512,-0.00000116366095426201
0.36999999999999999556,0.00000021500088109860
0.37049999999999999600,-0.00000002177802116421
0.37099999999999999645,-0.00000201594616555667
0.37149999999999999689,-0.00000412751796829980
0.37199999999999999734,-0.00000529052567799226
0.37249999999999999778,-0.00000610668394074310
0.37299999999999999822,-0.00000711852499080123
0.37349999999999999867,-0.00000767867095419206
0.37399999999999999911,-0.00000691821560394601
0.37449999999999999956,-0.00000503494356962619
0.37500000000000000000,-0.00000312308793581906
0.37550000000000000044,-0.00000202857131625933
0.37600000000000000089,-0.00000165628853210364
0.37650000000000000133,-0.00000132626291815541
0.37700000000000000178,-0.00000084897868646294
0.37750000000000000222,-0.00000096262783699785
0.37800000000000000266,-0.00000215699878935993
0.37850000000000000311,-0.00000363230560651573
0.37900000000000000355,-0.00000441526253780467
0.37950000000000000400,-0.00000463191690869280
0.38000000000000000444,-0.00000493666902912082
0.38050000000000000488,-0.00000554082771486719
0.38100000000000000533,-0.00000595633582634036
0.38150000000000000577,-0.00000549334572497173
0.38200000000000000622,-0.00000460844830740825
0.38250000000000000666,-0.00000495331914862618
0.38300000000000000711,-0.00000669662131258519
0.38350000000000000755,-0.00000780887421569787
0.38400000000000000799,-0.00000708090828993591
0.38450000000000000844,-0.00000529129920323612
0.38500000000000000888,-0.00000377950345864520
0.38550000000000000933,-0.00000362778746421100
0.38600000000000000977,-0.00000494896357849939
0.38650000000000001021,-0.00000646602393317153
0.38700000000000001066,-0.00000675842102282331
0.38750000000000001110,-0.00000581890253670281
0.38800000000000001155,-0.00000489388139612856
0.38850000000000001199,-0.00000464559889223892
0.38900000000000001243,-0.00000439512041339185
0.38950000000000001288,-0.00000369227427654550
0.39000000000000001332,-0.00000303343972518633
0.39050000000000001377,-0.00000266048232333560
0.39100000000000001421,-0.00000200357476387580
0.39150000000000001465,-0.00000082183720451212
0.39200000000000001510,-0.00000000783445841535
0.39250000000000001554,-0.00000022923431686195
0.39300000000000001599,-0.00000117470040095213
0.39350000000000001643,-0.00000259383637057908
0.39400000000000001688,-0.00000403018839278957
0.39450000000000001732,-0.00000453590291726869
0.39500000000000001776,-0.00000395017377741169
0.39550000000000001821,-0.00000292099502985366
0.39600000000000001865,-0.00000194195195035718
0.39650000000000001910,-0.00000135731465888966
0.39700000000000001954,-0.00000117482329642371
0.39750000000000001998,-0.00000078617483723065
0.39800000000000002043,-0.00000027009576797354
0.39850000000000002087,-0.00000088672902620601
0.39900000000000002132,-0.00000298234863294056
0.39950000000000002176,-0.00000526589610672090
0.40000000000000002220,-0.00000660611840430647
0.40050000000000002265,-0.00000695779863235657
0.40100000000000002309,-0.00000666685036776471
0.40150000000000002354,-0.00000580938785788021
0.40200000000000002398,-0.00000464988852399983
0.40250000000000002442,-0.00000409381618737825
0.40300000000000002487,-0.00000473945510748308
0.40350000000000002531,-0.00000591427942708833
0.40400000000000002576,-0.00000640615326119587
0.40450000000000002620,-0.00000601929923504940
0.40500000000000002665,-0.00000544387694390025
0.40550000000000002709,-0.00000489073227072367
0.40600000000000002753,-0.00000418097943111206
0.40649999999999997247,-0.00000321092943522672
0.40699999999999997291,-0.00000182297799256048
0.40749999999999997335,-0.00000043086743062304
0.40799999999999997380,0.00000008730673073387
0.40849999999999997424,-0.00000042394199795126
0.40899999999999997469,-0.00000147584432852454
0.40949999999999997513,-0.00000263193624050473
0.40999999999999997558,-0.00000349203173755086
0.41049999999999997602,-0.00000366644553650985
0.41099999999999997646,-0.00000298799659503857
0.41149999999999997691,-0.00000174435797362094
0.41199999999999997735,-0.00000069810073455301
0.41249999999999997780,-0.00000047378330236825
0.41299999999999997824,-0.00000077146080457169
0.41349999999999997868,-0.00000086582701896987
0.41399999999999997913,-0.00000114619558644335
0.41449999999999997957,-0.00000235663765124627
0.41499999999999998002,-0.00000353782979800599
0.41549999999999998046,-0.00000366261247108923
0.41599999999999998090,-0.00000358081751983264
0.41649999999999998135,-0.00000405021683036466
0.41699999999999998179,-0.00000475136812383425
0.41749999999999998224,-0.00000544447038919316
0.41799999999999998268,-0.00000571220471101697
0.41849999999999998312,-0.00000501348404213786
0.41899999999999998357,-0.00000380094888896565
0.41949999999999998401,-0.00000314366297970992
0.41999999999999998446,-0.00000350693380823941
0.42049999999999998490,-0.00000417130013374845
0.42099999999999998535,-0.00000400137514589005
0.42149999999999998579,-0.00000312322436002432
0.42199999999999998623,-0.00000269183556156349
0.42249999999999998668,-0.00000338877862304798
0.42299999999999998712,-0.00000504384979649330
0.42349999999999998757,-0.00000640741336610517
0.42399999999999998801,-0.00000613319934927858
0.42449999999999998845,-0.00000499952602694975
0.42499999999999998890,-0.00000480347853226704
0.42549999999999998934,-0.00000542167299499852
0.42599999999999998979,-0.00000534084620085196
0.42649999999999999023,-0.00000446990816271864
0.42699999999999999067,-0.00000437404469266767
0.42749999999999999112,-0.00000513452960149152
0.42799999999999999156,-0.00000489729563923902
0.42849999999999999201,-0.00000328983651343151
0.42899999999999999245,-0.00000182519329428033
0.42949999999999999289,-0.00000137758638629748
0.42999999999999999334,-0.00000148078800066287
0.43049999999999999378,-0.00000136728772304195
0.43099999999999999423,-0.00000105427807284286
0.43149999999999999467,-0.00000136934761485463
0.43199999999999999512,-0.00000251517303695437
0.43249999999999999556,-0.00000336047651217086
0.43299999999999999600,-0.00000339139887728379
0.43349999999999999645,-0.00000361866113962606
0.43399999999999999689,-0.00000420047490479192
0.43449999999999999734,-0.00000412844383390620
0.43499999999999999778,-0.00000344837008015020
0.43549999999999999822,-0.00000289929903374286
0.43599999999999999867,-0.00000284449288301403
0.43649999999999999911,-0.00000364979723599390
0.43699999999999999956,-0.00000484301926917396
0.43750000000000000000,-0.00000514598286827095
0.43800000000000000044,-0.00000466766368845128
0.43850000000000000089,-0.00000441943029727554
0.43900000000000000133,-0.00000406699382438092
0.43950000000000000178,-0.00000266704228124581
0.44000000000000000222,-0.00000109781558421673
0.44050000000000000266,-0.00000151708309203968
0.44100000000000000311,-0.00000350414597960480
0.44150000000000000355,-0.00000425074040322215
0.44200000000000000400,-0.00000331926821672823
0.44250000000000000444,-0.00000252006634582358
0.44300000000000000488,-0.00000245194928538695
0.44350000000000000533,-0.00000266346228272596
0.44400000000000000577,-0.00000299721796181984
0.44450000000000000622,-0.00000354133771907073
0.44500000000000000666,-0.00000433771674579475
0.44550000000000000711,-0.00000506454898641095
0.44600000000000000755,-0.00000514241628479795
0.44650000000000000799,-0.00000467010704596760
0.44700000000000000844,-0.00000428233215643559
0.44750000000000000888,-0.00000375900845028809
0.44800000000000000933,-0.00000267439691015170
0.44850000000000000977,-0.00000173501007338928
0.44900000000000001021,-0.00000152985285239993
0.44950000000000001066,-0.00000175776108335413
0.45000000000000001110,-0.00000227854434342589
0.45050000000000001155,-0.00000294410756396246
0.45100000000000001199,-0.00000324466827805736
0.45150000000000001243,-0.00000318115689879050
0.45200000000000001288,-0.00000316424302582163
0.45250000000000001332,-0.00000313498867399176
0.45300000000000001377,-0.00000283126473732409
0.45350000000000001421,-0.00000260575734500890
0.45400000000000001465,-0.00000316119167109719
0.45450000000000001510,-0.00000424045310865040
0.45500000000000001554,-0.00000471289285997045
0.45550000000000001599,-0.00000419583557231817
0.45600000000000001643,-0.00000316658633892075
0.45650000000000001688,-0.00000231554463425709
0.45700000000000001732,-0.00000262643243331695
0.45750000000000001776,-0.00000393451637137332
0.45800000000000001821,-0.00000441911606685608
0.45850000000000001865,-0.00000392513493352453
0.45900000000000001910,-0.00000437163907918148
0.45950000000000001954,-0.00000600379871684709
0.46000000000000001998,-0.00000708965535523021
0.46050000000000002043,-0.00000643009570922004
0.46100000000000002087,-0.00000456911311630392
0.46150000000000002132,-0.00000298300778922567
0.46200000000000002176,-0.00000211010910788900
0.46250000000000002220,-0.00000160876652444131
0.46300000000000002265,-0.00000181470795723726
0.46350000000000002309,-0.00000292356867248600
0.46400000000000002354,-0.00000410373013437493
0.46450000000000002398,-0.00000445509567725821
0.46500000000000002442,-0.00000407826928494615
0.46550000000000002487,-0.00000404040338253253
0.46600000000000002531,-0.00000508248012920376
0.46650000000000002576,-0.00000626693008598522
0.46700000000000002620,-0.00000603885655436898
0.46750000000000002665,-0.00000449892877441016
0.46800000000000002709,-0.00000324037614518602
0.46850000000000002753,-0.00000318774573315750
0.46899999999999997247,-0.00000360395620191412
0.46949999999999997291,-0.00000363575531991955
0.46999999999999997335,-0.00000354149256054370
0.47049999999999997380,-0.00000357768772119016
0.47099999999999997424,-0.00000375890545001312
0.47149999999999997469,-0.00000452335598311038
0.47199999999999997513,-0.00000566395783607732
0.47249999999999997558,-0.00000630084241493023
0.47299999999999997602,-0.00000651356504022260
0.47349999999999997646,-0.00000681664050716790
0.47399999999999997691,-0.00000707234903529752
0.47449999999999997735,-0.00000715977785148425
0.47499999999999997780,-0.00000694158052283456
0.47549999999999997824,-0.00000609061544309952
0.47599999999999997868,-0.00000523754488312989
0.47649999999999997913,-0.00000527640895597870
0.47699999999999997957,-0.00000559290810997481
0.47749999999999998002,-0.00000529691033079871
0.47799999999999998046,-0.00000477070716442540
0.47849999999999998090,-0.00000465513903691317
0.47899999999999998135,-0.00000495301037517493
0.47949999999999998179,-0.00000527664224136970
0.47999999999999998224,-0.00000519915738550480
0.48049999999999998268,-0.00000474891248813947
0.48099999999999998312,-0.00000433890227213851
0.48149999999999998357,-0.00000380575329472777
0.48199999999999998401,-0.00000273957516583323
0.48249999999999998446,-0.00000181850816716178
0.48299999999999998490,-0.00000199446685655857
0.48349999999999998535,-0.00000294832670988399
0.48399999999999998579,-0.00000360365493179415
0.48449999999999998623,-0.00000317972308039316
0.48499999999999998668,-0.00000177648803401098
0.48549999999999998712,-0.00000070291218889906
0.48599999999999998757,-0.00000087364185219485
0.48649999999999998801,-0.00000117277897970780
0.48699999999999998845,-0.00000038578184557991
0.48749999999999998890,0.00000108313747659849
0.48799999999999998934,0.00000217519118450582
0.48849999999999998979,0.00000211322935683711
0.48899999999999999023,0.00000120211757348443
0.48949999999999999067,0.00000035677823007063
0.48999999999999999112,-0.00000027011449788006
0.49049999999999999156,-0.00000089012439730141
0.49099999999999999201,-0.00000181560471901321
0.49149999999999999245,-0.00000344816089636879
0.49199999999999999289,-0.00000520754247190780
0.49249999999999999334,-0.00000615314274909906
0.49299999999999999378,-0.00000637319180896156
0.49349999999999999423,-0.00000620938408246730
0.49399999999999999467,-0.00000575833837501705
0.49449999999999999512,-0.00000535749813934672
0.49499999999999999556,-0.00000491878608954721
0.49549999999999999600,-0.00000407341440222808
0.49599999999999999645,-0.00000341201598530461
0.49649999999999999689,-0.00000352534175362962
0.49699999999999999734,-0.00000390323475585319
0.49749999999999999778,-0.00000422524044552119
0.49799999999999999822,-0.00000466852543468121
0.49849999999999999867,-0.00000496601660415763
0.49899999999999999911,-0.00000500943178849411
0.49949999999999999956,-0.00000530344686922035
0.50000000000000000000,-0.00000600894054514356
0.50049999999999994493,-0.00000655718440611963
0.50100000000000000089,-0.00000639302561467048
0.50149999999999994582,-0.00000572853332414525
0.50200000000000000178,-0.00000544522026757477
0.50249999999999994671,-0.00000601254942012019
0.50300000000000000266,-0.00000666655841996544
0.50349999999999994760,-0.00000649081312076305
0.50400000000000000355,-0.00000586673422731110
0.50449999999999994849,-0.00000556300801690668
0.50500000000000000444,-0.00000546778483112575
0.50549999999999994937,-0.00000521974197909003
0.50600000000000000533,-0.00000500637042932794
0.50649999999999995026,-0.00000495748736284440
0.50700000000000000622,-0.00000432769502367591
0.50749999999999995115,-0.00000309901588479988
0.50800000000000000711,-0.00000303143065139011
0.50849999999999995204,-0.00000429503370469320
0.50900000000000000799,-0.00000481228744320106
0.50949999999999995293,-0.00000434949424743536
0.51000000000000000888,-0.00000409032190873404
0.51049999999999995381,-0.00000386940837415750
0.51100000000000000977,-0.00000346155979968898
0.51149999999999995470,-0.00000319916125590680
0.51200000000000001066,-0.00000281906409327348
0.51249999999999995559,-0.00000235380139201880
0.51300000000000001155,-0.00000246659351432754
0.51349999999999995648,-0.00000305307958115009
0.51400000000000001243,-0.00000338329937221715
0.51449999999999995737,-0.00000332202534991666
0.51500000000000001332,-0.00000351955736732634
0.51549999999999995826,-0.00000421906179326470
0.51600000000000001421,-0.00000443943281425163
0.51649999999999995914,-0.00000359864043275593
0.51700000000000001510,-0.00000271217163572146
0.51749999999999996003,-0.00000268995904662006
0.51800000000000001599,-0.00000282397650153143
0.51849999999999996092,-0.00000205321498469857
0.51900000000000001688,-0.00000080603490459907
0.51949999999999996181,-0.00000001036855223902
0.52000000000000001776,0.00000040682715507501
0.52049999999999996270,0.00000046399628672589
0.52100000000000001865,-0.00000024373230189667
0.52149999999999996358,-0.00000137751953843690
0.52200000000000001954,-0.00000219065736928314
0.52249999999999996447,-0.00000245983460445132
0.52300000000000002043,-0.00000245181945501827
0.52349999999999996536,-0.00000271388876171841
0.52400000000000002132,-0.00000356789018951531
0.52449999999999996625,-0.00000442755981566734
0.52500000000000002220,-0.00000434745334132458
0.52549999999999996714,-0.00000340649603458587
0.52600000000000002309,-0.00000290715911432926
0.52649999999999996803,-0.00000358588249582681
0.52700000000000002398,-0.00000435475249105366
0.52749999999999996891,-0.00000429015881309169
0.52800000000000002487,-0.00000423263099946780
0.52849999999999996980,-0.00000490546426590299
0.52900000000000002576,-0.00000550534969079308
0.52949999999999997069,-0.00000509558503836161
0.53000000000000002665,-0.00000424042218583054
0.53049999999999997158,-0.00000404170623369282
0.53100000000000002753,-0.00000426074257120490
0.53149999999999997247,-0.00000422284028900322
0.53200000000000002842,-0.00000402806927013444
0.53249999999999997335,-0.00000366038625543297
0.53300000000000002931,-0.00000306004972117080
0.53349999999999997424,-0.00000275744309874426
0.53400000000000003020,-0.00000293095672532218
0.53449999999999997513,-0.00000322935466101626
0.53500000000000003109,-0.00000358026113644883
0.53549999999999997602,-0.00000374233195543638
0.53600000000000003197,-0.00000349327979165537
0.53649999999999997691,-0.00000362304626833065
0.53700000000000003286,-0.00000438935740021407
0.53749999999999997780,-0.00000461443687527208
0.53800000000000003375,-0.00000414614396504476
0.53849999999999997868,-0.00000389524529964547
0.53900000000000003464,-0.00000366664789908100
0.53949999999999997957,-0.00000312163842863811
0.54000000000000003553,-0.00000270601094598533
0.54049999999999998046,-0.00000239083942688012
0.54100000000000003642,-0.00000195918346435064
0.54149999999999998135,-0.00000204833622774458
0.54200000000000003730,-0.00000333471598423785
0.54249999999999998224,-0.00000503800856677117
0.54300000000000003819,-0.00000548625666851876
0.54349999999999998312,-0.00000476644299851614
0.54400000000000003908,-0.00000482403265777975
0.54449999999999998401,-0.00000630677595836460
0.54500000000000003997,-0.00000738341577743995
0.54549999999999998490,-0.00000647439037493314
0.54600000000000004086,-0.00000482149334857240
0.54649999999999998579,-0.00000434193998444243
0.54700000000000004174,-0.00000471005432700622
0.54749999999999998668,-0.00000493684456159826
0.54800000000000004263,-0.00000508183711644961
0.54849999999999998757,-0.00000532540252606850
0.54900000000000004352,-0.00000549710284758476
0.54949999999999998845,-0.00000533854654349852
0.55000000000000004441,-0.00000468386815555277
0.55049999999999998934,-0.00000400982935389038
0.55100000000000004530,-0.00000410064149036771
0.55149999999999999023,-0.00000468630560135352
0.55200000000000004619,-0.00000493547895530355
0.55249999999999999112,-0.00000499113730256795
0.55300000000000004707,-0.00000538135509486892
0.55349999999999999201,-0.00000588005195822916
0.55400000000000004796,-0.00000594665243625059
0.55449999999999999289,-0.00000535160370418453
0.55500000000000004885,-0.00000393365280615399
0.55549999999999999378,-0.00000191147455552709
0.55600000000000004974,-0.00000040371867271460
0.55649999999999999467,-0.00000000672283384517
0.55700000000000005063,0.00000010160542274207
0.55749999999999999556,0.00000030631639447165
0.55800000000000005151,-0.00000016475962638651
0.55849999999999999645,-0.00000137775111852534
0.55900000000000005240,-0.00000231569060815673
0.55949999999999999734,-0.00000254985184255929
0.56000000000000005329,-0.00000248555693360686
0.56049999999999999822,-0.00000243449608205992
0.56100000000000005418,-0.00000252203244599514
0.56149999999999999911,-0.00000274683179668500
0.56200000000000005507,-0.00000298993563774275
0.56250000000000000000,-0.00000345157855008438
0.56299999999999994493,-0.00000419195976064657
0.56350000000000000089,-0.00000434100229540491
0.56399999999999994582,-0.00000343203328156960
0.56450000000000000178,-0.00000242864803112752
0.56499999999999994671,-0.00000202641376745305
0.56550000000000000266,-0.00000187498881132342
0.56599999999999994760,-0.00000183096210548683
0.56650000000000000355,-0.00000226294559979578
0.56699999999999994849,-0.00000317934291160782
0.56750000000000000444,-0.00000395211918657878
0.56799999999999994937,-0.00000435344918514602
0.56850000000000000533,-0.00000486937233290519
0.56899999999999995026,-0.00000516487307322677
0.56950000000000000622,-0.00000453335451311432
0.56999999999999995115,-0.00000371912756236270
0.57050000000000000711,-0.00000336598213834804
0.57099999999999995204,-0.00000313412624564080
0.57150000000000000799,-0.00000351317135027784
0.57199999999999995293,-0.00000461509625893086
0.57250000000000000888,-0.00000520441335538635
0.57299999999999995381,-0.00000530326451553265
0.57350000000000000977,-0.00000576265301788226
0.57399999999999995470,-0.00000598047608946217
0.57450000000000001066,-0.00000534277660335647
0.57499999999999995559,-0.00000445167734142160
0.57550000000000001155,-0.00000378061690753384
0.57599999999999995648,-0.00000315042711918068
0.57650000000000001243,-0.00000242347914536367
0.57699999999999995737,-0.00000180525933046738
0.57750000000000001332,-0.00000146560830671660
0.57799999999999995826,-0.00000139200619742041
0.57850000000000001421,-0.00000174996705482044
0.57899999999999995914,-0.00000240703639065032
0.57950000000000001510,-0.00000270124883172684
0.57999999999999996003,-0.00000287700277112890
0.58050000000000001599,-0.00000380001370103855
0.58099999999999996092,-0.00000498676217830507
0.58150000000000001688,-0.00000511510916112456
0.58199999999999996181,-0.00000372321756003657
0.58250000000000001776,-0.00000204772391043662
0.58299999999999996270,-0.00000191944036487257
0.58350000000000001865,-0.00000304215654978179
0.58399999999999996358,-0.00000381407335225958
0.58450000000000001954,-0.00000387595810025232
0.58499999999999996447,-0.00000354658595824731
0.58550000000000002043,-0.00000363166054739850
0.58599999999999996536,-0.00000495085396323702
0.58650000000000002132,-0.00000611322047916474
0.58699999999999996625,-0.00000553886638954282
0.58750000000000002220,-0.00000445119121650350
0.58799999999999996714,-0.00000417279261455406
0.58850000000000002309,-0.00000414360010836390
0.58899999999999996803,-0.00000386351621273207
0.58950000000000002398,-0.00000345550893143809
0.58999999999999996891,-0.00000293897710434976
0.59050000000000002487,-0.00000245161641032610
0.59099999999999996980,-0.00000252246991294669
0.59150000000000002576,-0.00000330932243741699
0.59199999999999997069,-0.00000379495668312302
0.59250000000000002665,-0.00000335067670675926
0.59299999999999997158,-0.00000312098291033180
0.59350000000000002753,-0.00000378578238269256
0.59399999999999997247,-0.00000442095597463776
0.59450000000000002842,-0.00000454441351394053
0.59499999999999997335,-0.00000438056122220587
0.59550000000000002931,-0.00000384859959012829
0.59599999999999997424,-0.00000335420759256522
0.59650000000000003020,-0.00000382324287784286
0.59699999999999997513,-0.00000510674180986825
0.59750000000000003109,-0.00000620399760009605
0.59799999999999997602,-0.00000673514841764700
0.59850000000000003197,-0.00000699680276738945
0.59899999999999997691,-0.00000746631394576980
0.59950000000000003286,-0.00000827741041575791
0.59999999999999997780,-0.00000856961924000643
0.60050000000000003375,-0.00000733734032110078
0.60099999999999997868,-0.00000505439857079182
0.60150000000000003464,-0.00000333725574819255
0.60199999999999997957,-0.00000278515244644950
0.60250000000000003553,-0.00000240902204495796
0.60299999999999998046,-0.00000194219728655298
0.60350000000000003642,-0.00000237521317103528
0.60399999999999998135,-0.00000363186018148554
0.60450000000000003730,-0.00000449596745966119
0.60499999999999998224,-0.00000442258487964864
0.60550000000000003819,-0.00000380379924536101
0.60599999999999998312,-0.00000318459660775261
0.60650000000000003908,-0.00000278396146313753
0.60699999999999998401,-0.00000264608024735935
0.60750000000000003997,-0.00000279253936241730
0.60799999999999998490,-0.00000304177319776500
0.60850000000000004086,-0.00000320962703881378
0.60899999999999998579,-0.00000336984066962032
0.60950000000000004174,-0.00000359125078830402
0.60999999999999998668,-0.00000397784515371313
0.61050000000000004263,-0.00000477810863230843
0.61099999999999998757,-0.00000570352131035179
0.61150000000000004352,-0.00000598392216488719
0.61199999999999998845,-0.00000548577600056888
0.61250000000000004441,-0.00000476681361760711
0.61299999999999998934,-0.00000415791373598040
0.61350000000000004530,-0.00000349399579135934
0.61399999999999999023,-0.00000282346468338801
0.61450000000000004619,-0.00000275459524345933
0.61499999999999999112,-0.00000350028267348534
0.61550000000000004707,-0.00000418968920712359
0.61599999999999999201,-0.00000392394758819137
0.61650000000000004796,-0.00000330418492922036
0.61699999999999999289,-0.00000359151840712002
0.61750000000000004885,-0.00000449569324700860
0.61799999999999999378,-0.00000475086244478007
0.61850000000000004974,-0.00000406484741688473
0.61899999999999999467,-0.00000298076133731229
0.61950000000000005063,-0.00000204187472263584
0.61999999999999999556,-0.00000160938895987783
0.62050000000000005151,-0.00000171165595475031
0.62099999999999999645,-0.00000199589749172446
0.62150000000000005240,-0.00000205810260922590
0.62199999999999999734,-0.00000193173627849319
0.62250000000000005329,-0.00000198483962776663
0.62299999999999999822,-0.00000225247958951513
0.62350000000000005418,-0.00000264953700934711
0.62399999999999999911,-0.00000336780499310407
0.62450000000000005507,-0.00000403370040658046
0.62500000000000000000,-0.00000390646437153919
0.62549999999999994493,-0.00000321141214953968
0.62600000000000000089,-0.00000251788901550754
0.62649999999999994582,-0.00000186096690413251
0.62700000000000000178,-0.00000141544614962186
0.62749999999999994671,-0.00000130535102016438
0.62800000000000000266,-0.00000112674445063021
0.62849999999999994760,-0.00000090149558218400
0.62900000000000000355,-0.00000135164475523197
0.62949999999999994849,-0.00000266349707089830
0.63000000000000000444,-0.00000381079576072807
0.63049999999999994937,-0.00000379705488740001
0.63100000000000000533,-0.00000322371784022835
0.63149999999999995026,-0.00000336040602633148
0.63200000000000000622,-0.00000419937805418158
0.63249999999999995115,-0.00000466725441583549
0.63300000000000000711,-0.00000430620912084123
0.63349999999999995204,-0.00000394949984183768
0.63400000000000000799,-0.00000453449047199683
0.63449999999999995293,-0.00000575132889935048
0.63500000000000000888,-0.00000644579540676204
0.63549999999999995381,-0.00000580937512495439
0.63600000000000000977,-0.00000382256712327944
0.63649999999999995470,-0.00000188631418041041
0.63700000000000001066,-0.00000165514893524232
0.63749999999999995559,-0.00000223731171899999
0.63800000000000001155,-0.00000230278624258062
0.63849999999999995648,-0.00000272984061666648
0.63900000000000001243,-0.00000382970165446750
0.63949999999999995737,-0.00000457507212558994
0.64000000000000001332,-0.00000481127153761918
0.64049999999999995826,-0.00000493691186420619
0.64100000000000001421,-0.00000495060476168874
0.64149999999999995914,-0.00000474531498184660
0.64200000000000001510,-0.00000430545333074406
0.64249999999999996003,-0.00000385423936677398
0.64300000000000001599,-0.00000385636167266057
0.64349999999999996092,-0.00000434235653301585
0.64400000000000001688,-0.00000480799644719809
0.64449999999999996181,-0.00000502296779814060
0.64500000000000001776,-0.00000508282164446427
0.64549999999999996270,-0.00000499404177389806
0.64600000000000001865,-0.00000486640556118800
0.64649999999999996358,-0.00000490751835968695
0.64700000000000001954,-0.00000513121722178767
0.64749999999999996447,-0.00000551055290998193
0.64800000000000002043,-0.00000598592168898904
0.64849999999999996536,-0.00000626683140581008
0.64900000000000002132,-0.00000616222496319097
0.64949999999999996625,-0.00000565476648262120
0.65000000000000002220,-0.00000457697342426400
0.65049999999999996714,-0.00000302080479741562
0.65100000000000002309,-0.00000168615429174679
0.65149999999999996803,-0.00000128573287838663
0.65200000000000002398,-0.00000162122478286619
0.65249999999999996891,-0.00000167708344633866
0.65300000000000002487,-0.00000142128715197032
0.65349999999999996980,-0.00000191846675079432
0.65400000000000002576,-0.00000299133716907818
0.65449999999999997069,-0.00000349883362105174
0.65500000000000002665,-0.00000323949257108325
0.65549999999999997158,-0.00000251622964242415
0.65600000000000002753,-0.00000172249394836399
0.65649999999999997247,-0.00000156603800860466
0.65700000000000002842,-0.00000189251488791342
0.65749999999999997335,-0.00000179805465450045
0.65800000000000002931,-0.00000149148684158718
0.65849999999999997424,-0.00000178643961135094
0.65900000000000003020,-0.00000258056570601184
0.65949999999999997513,-0.00000348718504028511
0.66000000000000003109,-0.00000454757037005038
0.66049999999999997602,-0.00000582788834435632
0.66100000000000003197,-0.00000720181878932635
0.66149999999999997691,-0.00000817479485704098
0.66200000000000003286,-0.00000804177307145437
0.66249999999999997780,-0.00000671226598569774
0.66300000000000003375,-0.00000472210149382590
0.66349999999999997868,-0.00000302356693282491
0.66400000000000003464,-0.00000242770443037443
0.66449999999999997957,-0.00000242945816353313
0.66500000000000003553,-0.00000284713996734354
0.66549999999999998046,-0.00000448975742983748
0.66600000000000003642,-0.00000638961228105472
0.66649999999999998135,-0.00000716234944775351
0.66700000000000003730,-0.00000720891193850548
0.66749999999999998224,-0.00000640908456261968
0.66800000000000003819,-0.00000455359213447082
0.66849999999999998312,-0.00000325128848999157
0.66900000000000003908,-0.00000324391021422343
0.66949999999999998401,-0.00000319720038532978
0.67000000000000003997,-0.00000242799342231592
0.67049999999999998490,-0.00000171422573203017
0.67100000000000004086,-0.00000169927807291970
0.67149999999999998579,-0.00000211404790206871
0.67200000000000004174,-0.00000268067992692522
0.67249999999999998668,-0.00000342335897585144
0.67300000000000004263,-0.00000362570631295966
0.67349999999999998757,-0.00000273159957941971
0.67400000000000004352,-0.00000182269650395028
0.67449999999999998845,-0.00000193687674254761
0.67500000000000004441,-0.00000257494184552343
0.67549999999999998934,-0.00000291662445306429
0.67600000000000004530,-0.00000290248112833069
0.67649999999999999023,-0.00000289856961899204
0.67700000000000004619,-0.00000292537220047961
0.67749999999999999112,-0.00000262928574557009
0.67800000000000004707,-0.00000192431207324262
0.67849999999999999201,-0.00000105578726561362
0.67900000000000004796,-0.00000019837779063892
0.67949999999999999289,0.00000054517010994459
0.68000000000000004885,0.00000089715967988013
0.68049999999999999378,0.00000055453574532294
0.68100000000000004974,-0.00000042466413674447
0.68149999999999999467,-0.00000165638971338922
0.68200000000000005063,-0.00000271709814114729
0.68249999999999999556,-0.00000339629809786857
0.68300000000000005151,-0.00000407476181862876
0.68349999999999999645,-0.00000551481889488059
0.68400000000000005240,-0.00000769391954236198
0.68449999999999999734,-0.00000944910607358906
0.68500000000000005329,-0.00000979019750957377
0.68549999999999999822,-0.00000920211459742859
0.68600000000000005418,-0.00000885809731698828
0.68649999999999999911,-0.00000859113788465038
0.68700000000000005507,-0.00000754643542677513
0.68750000000000000000,-0.00000631858620181447
0.68799999999999994493,-0.00000605781269769068
0.68850000000000000089,-0.00000631403418083210
0.68899999999999994582,-0.00000556168333787355
0.68950000000000000178,-0.00000439183622802375
0.68999999999999994671,-0.00000534842047272832
0.69050000000000000266,-0.00000757239558879519
0.69099999999999994760,-0.00000798902874521445
0.69150000000000000355,-0.00000759986824050429
0.69199999999999994849,-0.00000831290253699990
0.69250000000000000444,-0.00000838862979435362
0.69299999999999994937,-0.00000652967355563305
0.69350000000000000533,-0.00000442718874182901
0.69399999999999995026,-0.00000374768228539324
0.69450000000000000622,-0.00000407078459829791
0.69499999999999995115,-0.00000419845218857517
0.69550000000000000711,-0.00000374009277948062
0.69599999999999995204,-0.00000268569624495285
0.69650000000000000799,-0.00000125933490835450
0.69699999999999995293,-0.00000041050958543565
0.69750000000000000888,-0.00000081879670688068
0.69799999999999995381,-0.00000197905387722130
0.69850000000000000977,-0.00000307020127365831
0.69899999999999995470,-0.00000403113244829001
0.69950000000000001066,-0.00000507056711285259
0.69999999999999995559,-0.00000556650138605619
0.70050000000000001155,-0.00000502901548316004
0.70099999999999995648,-0.00000404110596718965
0.70150000000000001243,-0.00000253174630415742
0.70199999999999995737,-0.00000036851645290881
0.70250000000000001332,0.00000054682652717020
0.70299999999999995826,-0.00000066909888118971
0.70350000000000001421,-0.00000205855576496106
0.70399999999999995914,-0.00000250566063186852
0.70450000000000001510,-0.00000253336565947393
0.70499999999999996003,-0.00000266736515186494
0.70550000000000001599,-0.00000372058252651186
0.70599999999999996092,-0.00000572574026591610
0.70650000000000001688,-0.00000702313172951108
0.70699999999999996181,-0.00000676217041473137
0.70750000000000001776,-0.00000592687365497113
0.70799999999999996270,-0.00000515101191922440
0.70850000000000001865,-0.00000441796237282688
0.70899999999999996358,-0.00000394191556551959
0.70950000000000001954,-0.00000338550739797938
0.70999999999999996447,-0.00000240585200117494
0.71050000000000002043,-0.00000182129747372528
0.71099999999999996536,-0.00000190340381323040
0.71150000000000002132,-0.00000167708992648841
0.71199999999999996625,-0.00000093069814965929
0.71250000000000002220,-0.00000014819011084910
0.71299999999999996714,0.00000055762791362213
0.71350000000000002309,0.00000069192628870951
0.71399999999999996803,-0.00000023165006268755
0.71450000000000002398,-0.00000146467834838404
0.71499999999999996891,-0.00000206047502615547
0.71550000000000002487,-0.00000227191821977613
0.71599999999999996980,-0.00000294018559543474
0.71650000000000002576,-0.00000410356187785510
0.71699999999999997069,-0.00000508057928527705
0.71750000000000002665,-0.00000551237280888017
0.71799999999999997158,-0.00000533330876351101
0.71850000000000002753,-0.00000453415805168333
0.71899999999999997247,-0.00000328458963849698
0.71950000000000002842,-0.00000188382171018020
0.71999999999999997335,-0.00000098225189049117
0.72050000000000002931,-0.00000128916269659385
0.72099999999999997424,-0.00000263588935922598
0.72150000000000003020,-0.00000397686881115078
0.72199999999999997513,-0.00000442639475295437
0.72250000000000003109,-0.00000406482513426454
0.72299999999999997602,-0.00000375467470803414
0.72350000000000003197,-0.00000399052578359260
0.72399999999999997691,-0.00000414161149819847
0.72450000000000003286,-0.00000342964563060377
0.72499999999999997780,-0.00000232209367823089
0.72550000000000003375,-0.00000220785250348854
0.72599999999999997868,-0.00000349840593116824
0.72650000000000003464,-0.00000491164291815949
0.72699999999999997957,-0.00000522621849086136
0.72750000000000003553,-0.00000468559755972819
0.72799999999999998046,-0.00000423671554017346
0.72850000000000003642,-0.00000417825958720641
0.72899999999999998135,-0.00000404702586820349
0.72950000000000003730,-0.00000354168719240988
0.72999999999999998224,-0.00000290001844405197
0.73050000000000003819,-0.00000246776744461386
0.73099999999999998312,-0.00000248590981755115
0.73150000000000003908,-0.00000312773090627161
0.73199999999999998401,-0.00000411252949561458
0.73250000000000003997,-0.00000460280352854170
0.73299999999999998490,-0.00000411024029745022
0.73350000000000004086,-0.00000311546023112896
0.73399999999999998579,-0.00000250791663347627
0.73450000000000004174,-0.00000279473852060619
0.73499999999999998668,-0.00000379052062271512
0.73550000000000004263,-0.00000474628632218810
0.73599999999999998757,-0.00000490880984216346
0.73650000000000004352,-0.00000415151225752197
0.73699999999999998845,-0.00000302628541248851
0.73750000000000004441,-0.00000229734837375872
0.73799999999999998934,-0.00000247209413828386
0.73850000000000004530,-0.00000327404268318787
0.73899999999999999023,-0.00000358842316927621
0.73950000000000004619,-0.00000275226875601220
0.73999999999999999112,-0.00000160867671183951
0.74050000000000004707,-0.00000150661639963801
0.74099999999999999201,-0.00000242996816268715
0.74150000000000004796,-0.00000298388385999715
0.74199999999999999289,-0.00000255188547271246
0.74250000000000004885,-0.00000186128761470172
0.74299999999999999378,-0.00000133764751808485
0.74350000000000004974,-0.00000094722639687461
0.74399999999999999467,-0.00000102737419638288
0.74450000000000005063,-0.00000185268277164141
0.74499999999999999556,-0.00000294876122097776
0.74550000000000005151,-0.00000344968862009409
0.74599999999999999645,-0.00000312650627165567
0.74650000000000005240,-0.00000278581410384504
0.74699999999999999734,-0.00000345846478921885
0.74750000000000005329,-0.00000517901435159729
0.74799999999999999822,-0.00000661476724417298
0.74850000000000005418,-0.00000630749400443165
0.74899999999999999911,-0.00000476290915685240
0.74950000000000005507,-0.00000387200771001517
0.75000000000000000000,-0.00000356139616997098
0.75049999999999994493,-0.00000239128394241561
0.75100000000000000089,-0.00000095674818112457
0.75149999999999994582,-0.00000074183412834827
0.75200000000000000178,-0.00000172393697539519
0.75249999999999994671,-0.00000315214742840908
0.75300000000000000266,-0.00000439910400018562
0.75349999999999994760,-0.00000498642111779191
0.75400000000000000355,-0.00000492097024107352
0.75449999999999994849,-0.00000436797381553333
0.75500000000000000444,-0.00000323154722536856
0.75549999999999994937,-0.00000190404375643993
0.75600000000000000533,-0.00000157006184053898
0.75649999999999995026,-0.00000290212119580247
0.75700000000000000622,-0.00000474333910460700
0.75749999999999995115,-0.00000499169982504100
0.75800000000000000711,-0.00000325162932313106
0.75849999999999995204,-0.00000155999907747173
0.75900000000000000799,-0.00000171534611581592
0.75949999999999995293,-0.00000281038273897138
0.76000000000000000888,-0.00000306414449369186
0.76049999999999995381,-0.00000289072909254173
0.76100000000000000977,-0.00000361667275683430
0.76149999999999995470,-0.00000481223969472921
0.76200000000000001066,-0.00000488673776999349
0.76249999999999995559,-0.00000353130144503666
0.76300000000000001155,-0.00000239648102251522
0.76349999999999995648,-0.00000284771795122651
0.76400000000000001243,-0.00000406261779062334
0.76449999999999995737,-0.00000441275324192247
0.76500000000000001332,-0.00000414437454310246
0.76549999999999995826,-0.00000454124801763101
0.76600000000000001421,-0.00000510990184920956
0.76649999999999995914,-0.00000513496206622222
0.76700000000000001510,-0.00000561383831154671
0.76749999999999996003,-0.00000672998748996179
0.76800000000000001599,-0.00000723401853974792
0.76849999999999996092,-0.00000685873283146066
0.76900000000000001688,-0.00000635119795333594
0.76949999999999996181,-0.00000601732381255715
0.77000000000000001776,-0.00000557134126211167
0.77049999999999996270,-0.00000508189486936317
0.77100000000000001865,-0.00000494074947710033
0.77149999999999996358,-0.00000454592054666136
0.77200000000000001954,-0.00000337778237735620
0.77249999999999996447,-0.00000264849313680315
0.77300000000000002043,-0.00000303510660160100
0.77349999999999996536,-0.00000344716954714386
0.77400000000000002132,-0.00000325449809679412
0.77449999999999996625,-0.00000262896082858788
0.77500000000000002220,-0.00000173809553416504
0.77549999999999996714,-0.00000125528674743691
0.77600000000000002309,-0.00000173257353708323
0.77649999999999996803,-0.00000261781906374381
0.77700000000000002398,-0.00000319027230943902
0.77749999999999996891,-0.00000331870819536562
0.77800000000000002487,-0.00000305422099700081
0.77849999999999996980,-0.00000261236641563301
0.77900000000000002576,-0.00000262561320596433
0.77949999999999997069,-0.00000363892513632891
0.78000000000000002665,-0.00000497888504469302
0.78049999999999997158,-0.00000539637903784751
0.78100000000000002753,-0.00000537046571480460
0.78149999999999997247,-0.00000617864679952618
0.78200000000000002842,-0.00000736492665964761
0.78249999999999997335,-0.00000796075437392574
0.78300000000000002931,-0.00000804762294137618
0.78349999999999997424,-0.00000784080384619301
0.78400000000000003020,-0.00000736043421056820
0.78449999999999997513,-0.00000691374862071825
0.78500000000000003109,-0.00000702278066455619
0.78549999999999997602,-0.00000757283851271495
0.78600000000000003197,-0.00000744384578865720
0.78649999999999997691,-0.00000618065769231180
0.78700000000000003286,-0.00000443410135630984
0.78749999999999997780,-0.00000230358182307100
0.78800000000000003375,0.00000002482568106643
0.78849999999999997868,0.00000149875518218323
0.78900000000000003464,0.00000190522325738129
0.78949999999999997957,0.00000187408068086370
0.79000000000000003553,0.00000147677724271489
0.79049999999999998046,0.00000066068542992070
0.79100000000000003642,-0.00000031755993745719
0.79149999999999998135,-0.00000137327231186646
0.79200000000000003730,-0.00000237204062614182
0.79249999999999998224,-0.00000277306594398397
0.79300000000000003819,-0.00000220380206883419
0.79349999999999998312,-0.00000133201717744669
0.79400000000000003908,-0.00000137048050419253
0.79449999999999998401,-0.00000237143694903352
0.79500000000000003997,-0.00000323750214192842
0.79549999999999998490,-0.00000337435835717770
0.79600000000000004086,-0.00000310485870613775
0.79649999999999998579,-0.00000289044510282110
0.79700000000000004174,-0.00000284566476693726
0.79749999999999998668,-0.00000300742067338433
0.79800000000000004263,-0.00000357206999979098
0.79849999999999998757,-0.00000426656060881214
0.79900000000000004352,-0.00000461265472040395
0.79949999999999998845,-0.00000493806555823539
0.80000000000000004441,-0.00000536817333340878
0.80049999999999998934,-0.00000523740163771436
0.80100000000000004530,-0.00000455839563073823
0.80149999999999999023,-0.00000385797420676681
0.80200000000000004619,-0.00000331953924614936
0.80249999999999999112,-0.00000333596699420013
0.80300000000000004707,-0.00000396147470382857
0.80349999999999999201,-0.00000420889682573033
0.80400000000000004796,-0.00000353162749888725
0.80449999999999999289,-0.00000280159611065756
0.80500000000000004885,-0.00000301725594908930
0.80549999999999999378,-0.00000384617669624276
0.80600000000000004974,-0.00000425523649028037
0.80649999999999999467,-0.00000412723602494225
0.80700000000000005063,-0.00000383188853447791
0.80749999999999999556,-0.00000308054040942807
0.80800000000000005151,-0.00000163247830187174
0.80849999999999999645,-0.00000033028157986337
0.80900000000000005240,-0.00000033179614433720
0.80949999999999999734,-0.00000130654530039465
0.81000000000000005329,-0.00000195083703147247
0.81049999999999999822,-0.00000215079398913076
0.81100000000000005418,-0.00000246910803980427
0.81149999999999999911,-0.00000267090604211262
0.81200000000000005507,-0.00000229302804655163
0.81250000000000000000,-0.00000137670531330514
0.81299999999999994493,-0.00000052401310313144
0.81350000000000000089,-0.00000062905940012570
0.81399999999999994582,-0.00000174002570929588
0.81450000000000000178,-0.00000269935003416322
0.81499999999999994671,-0.00000286026420326380
0.81550000000000000266,-0.00000274090598395560
0.81599999999999994760,-0.00000260260276263580
0.81650000000000000355,-0.00000236861137636879
0.81699999999999994849,-0.00000229375746130245
0.81750000000000000444,-0.00000232272691391699
0.81799999999999994937,-0.00000230586670113553
0.81850000000000000533,-0.00000270639066002332
0.81899999999999995026,-0.00000348566913999093
0.81950000000000000622,-0.00000400935959987692
0.81999999999999995115,-0.00000457109808849054
0.82050000000000000711,-0.00000548573325431789
0.82099999999999995204,-0.00000600815747020533
0.82150000000000000799,-0.00000604539354753797
0.82199999999999995293,-0.00000648193190500024
0.82250000000000000888,-0.00000725231711840024
0.82299999999999995381,-0.00000709876576365787
0.82350000000000000977,-0.00000563169942324748
0.82399999999999995470,-0.00000431576609116746
0.82450000000000001066,-0.00000429992041972582
0.82499999999999995559,-0.00000493785773869604
0.82550000000000001155,-0.00000516057934873970
0.82599999999999995648,-0.00000471579824079527
0.82650000000000001243,-0.00000445767864221125
0.82699999999999995737,-0.00000547921627003234
0.82750000000000001332,-0.00000716182967153145
0.82799999999999995826,-0.00000752735877540545
0.82850000000000001421,-0.00000628651469014585
0.82899999999999995914,-0.00000552191113456502
0.82950000000000001510,-0.00000676666650178959
0.82999999999999996003,-0.00000893106607691152
0.83050000000000001599,-0.00000999633630272001
0.83099999999999996092,-0.00001010513551591430
0.83150000000000001688,-0.00001033571061270777
0.83199999999999996181,-0.00000981113680609269
0.83250000000000001776,-0.00000793495564721525
0.83299999999999996270,-0.00000615471526543843
0.83350000000000001865,-0.00000523462267665309
0.83399999999999996358,-0.00000460423279946554
0.83450000000000001954,-0.00000404970205636346
0.83499999999999996447,-0.00000369627923646476
0.83550000000000002043,-0.00000343559008797456
0.83599999999999996536,-0.00000317351373269048
0.83650000000000002132,-0.00000312232668875367
0.83699999999999996625,-0.00000331182286572584
0.83750000000000002220,-0.00000319160631079285
0.83799999999999996714,-0.00000246745730692055
0.83850000000000002309,-0.00000160146328198607
0.83899999999999996803,-0.00000134386641548190
0.83950000000000002398,-0.00000198594216271886
0.83999999999999996891,-0.00000284240286418935
0.84050000000000002487,-0.00000342801081387734
0.84099999999999996980,-0.00000398000702261925
0.84150000000000002576,-0.00000406554499932099
0.84199999999999997069,-0.00000328073747368762
0.84250000000000002665,-0.00000262182106780529
0.84299999999999997158,-0.00000309321103486582
0.84350000000000002753,-0.00000412672079619369
0.84399999999999997247,-0.00000431762100561173
0.84450000000000002842,-0.00000329089152728557
0.84499999999999997335,-0.00000220276638174255
0.84550000000000002931,-0.00000206262507163046
0.84599999999999997424,-0.00000203080071514705
0.84650000000000003020,-0.00000079296535204776
0.84699999999999997513,0.00000079447886491835
0.84750000000000003109,0.00000082623154185058
0.84799999999999997602,-0.00000084380377529669
0.84850000000000003197,-0.00000289270292341826
0.84899999999999997691,-0.00000459261082141893
0.84950000000000003286,-0.00000623694450041512
0.84999999999999997780,-0.00000764261585572967
0.85050000000000003375,-0.00000790996818977874
0.85099999999999997868,-0.00000698819621902658
0.85150000000000003464,-0.00000567790493732900
0.85199999999999997957,-0.00000425826920036343
0.85250000000000003553,-0.00000267561745204148
0.85299999999999998046,-0.00000137129973154515
0.85350000000000003642,-0.00000047714445372549
0.85399999999999998135,0.00000057075186532529
0.85450000000000003730,0.00000170129612797609
0.85499999999999998224,0.00000201358261620044
0.85550000000000003819,0.00000114237502657488
0.85599999999999998312,-0.00000008436364851150
0.85650000000000003908,-0.00000043347355926926
0.85699999999999998401,0.00000008561301001464
0.85750000000000003997,0.00000017057904244666
0.85799999999999998490,-0.00000054772033308836
0.85850000000000004086,-0.00000125600809042226
0.85899999999999998579,-0.00000180492065737781
0.85950000000000004174,-0.00000253142025030684
0.85999999999999998668,-0.00000317988155984494
0.86050000000000004263,-0.00000325665746458981
0.86099999999999998757,-0.00000279215532827948
0.86150000000000004352,-0.00000254768838203745
0.86199999999999998845,-0.00000338865402227384
0.86250000000000004441,-0.00000495035465064575
0.86299999999999998934,-0.00000577378750676871
0.86350000000000004530,-0.00000559462932869792
0.86399999999999999023,-0.00000561012575417408
0.86450000000000004619,-0.00000622458810539683
0.86499999999999999112,-0.00000670598001306644
0.86550000000000004707,-0.00000652399876344134
0.86599999999999999201,-0.00000591126445215195
0.86650000000000004796,-0.00000538421136297984
0.86699999999999999289,-0.00000502518651046557
0.86750000000000004885,-0.00000478718993690563
0.86799999999999999378,-0.00000488264595333021
0.86850000000000004974,-0.00000524363667864236
0.86899999999999999467,-0.00000550592812942341
0.86950000000000005063,-0.00000555836368221208
0.86999999999999999556,-0.00000546769751963438
0.87050000000000005151,-0.00000506874357597553
0.87099999999999999645,-0.00000414783107771655
0.87150000000000005240,-0.00000304245008919679
0.87199999999999999734,-0.00000239563382820052
0.87250000000000005329,-0.00000242213809542591
0.87299999999999999822,-0.00000298010468213761
0.87350000000000005418,-0.00000358603074346320
0.87399999999999999911,-0.00000336016546498286
0.87450000000000005507,-0.00000229133729590103
0.87500000000000000000,-0.00000190243349607044
0.87549999999999994493,-0.00000346894830727251
0.87600000000000000089,-0.00000604772867518477
0.87649999999999994582,-0.00000744335557101294
0.87700000000000000178,-0.00000733728575141868
0.87749999999999994671,-0.00000698740996085689
0.87800000000000000266,-0.00000632948149359436
0.87849999999999994760,-0.00000529877570443205
0.87900000000000000355,-0.00000533419461135054
0.87949999999999994849,-0.00000633931676929933
0.88000000000000000444,-0.00000637663015368162
0.88049999999999994937,-0.00000529338740307139
0.88100000000000000533,-0.00000484512565890327
0.88149999999999995026,-0.00000543410533282440
0.88200000000000000622,-0.00000544527301826747
0.88249999999999995115,-0.00000424179233959876
0.88300000000000000711,-0.00000334639253196656
0.88349999999999995204,-0.00000379329003408202
0.88400000000000000799,-0.00000431738953921013
0.88449999999999995293,-0.00000334996138917631
0.88500000000000000888,-0.00000194383301277412
0.88549999999999995381,-0.00000197436884263880
0.88600000000000000977,-0.00000276791570286150
0.88649999999999995470,-0.00000315980446430331
0.88700000000000001066,-0.00000347871241501707
0.88749999999999995559,-0.00000365501909982413
0.88800000000000001155,-0.00000340034512191778
0.88849999999999995648,-0.00000327143311551481
0.88900000000000001243,-0.00000335177196575387
0.88949999999999995737,-0.00000341003556059150
0.89000000000000001332,-0.00000383310816687299
0.89049999999999995826,-0.00000413505222240929
0.89100000000000001421,-0.00000328784972225549
0.89149999999999995914,-0.00000202764704226865
0.89200000000000001510,-0.00000162253786584188
0.89249999999999996003,-0.00000202232649826328
0.89300000000000001599,-0.00000281623488262994
0.89349999999999996092,-0.00000358127135768882
0.89400000000000001688,-0.00000371510532204411
0.89449999999999996181,-0.00000321415427606553
0.89500000000000001776,-0.00000217751198761107
0.89549999999999996270,-0.00000036061010177946
0.89600000000000001865,0.00000110466578462365
0.89649999999999996358,0.00000067512849000195
0.89700000000000001954,-0.00000040321864958059
0.89749999999999996447,-0.00000063031717445483
0.89800000000000002043,-0.00000111734539132158
0.89849999999999996536,-0.00000203364402295847
0.89900000000000002132,-0.00000230588489102956
0.89949999999999996625,-0.00000289970444100618
0.90000000000000002220,-0.00000448619402959594
0.90049999999999996714,-0.00000571493046663818
0.90100000000000002309,-0.00000632183764537331
0.90149999999999996803,-0.00000723967195881414
0.90200000000000002398,-0.00000826451105240267
0.90249999999999996891,-0.00000841006385599030
0.90300000000000002487,-0.00000745969464333029
0.90349999999999996980,-0.00000616875649939175
0.90400000000000002576,-0.00000517210082762176
0.90449999999999997069,-0.00000463133665107307
0.90500000000000002665,-0.00000477714047519839
0.90549999999999997158,-0.00000515446754434379
0.90600000000000002753,-0.00000443020280727069
0.90649999999999997247,-0.00000279109826806234
0.90700000000000002842,-0.00000229479860536230
0.90749999999999997335,-0.00000372519025404472
0.90800000000000002931,-0.00000574955583942938
0.90849999999999997424,-0.00000704340163792949
0.90900000000000003020,-0.00000723061384633183
0.90949999999999997513,-0.00000657449209029437
0.91000000000000003109,-0.00000556303166376892
0.91049999999999997602,-0.00000436117625213228
0.91100000000000003197,-0.00000319201922138745
0.91149999999999997691,-0.00000278301035905315
0.91200000000000003286,-0.00000327084921991627
0.91249999999999997780,-0.00000365571258953423
0.91300000000000003375,-0.00000304507443615876
0.91349999999999997868,-0.00000171462647813314
0.91400000000000003464,-0.00000090039668521058
0.91449999999999997957,-0.00000151868391640164
0.91500000000000003553,-0.00000260557226283709
0.91549999999999998046,-0.00000240100689552492
0.91600000000000003642,-0.00000145189392242173
0.91649999999999998135,-0.00000145115427585552
0.91700000000000003730,-0.00000213692442230240
0.91749999999999998224,-0.00000281289976555854
0.91800000000000003819,-0.00000361851584784745
0.91849999999999998312,-0.00000401057513954584
0.91900000000000003908,-0.00000384345594284241
0.91949999999999998401,-0.00000452253880212083
0.92000000000000003997,-0.00000633847230346873
0.92049999999999998490,-0.00000739559527573874
0.92100000000000004086,-0.00000660746309222304
0.92149999999999998579,-0.00000521888568982831
0.92200000000000004174,-0.00000463423930341378
0.92249999999999998668,-0.00000475491515317117
0.92300000000000004263,-0.00000503700175613631
0.92349999999999998757,-0.00000536609468326787
0.92400000000000004352,-0.00000546737192053115
0.92449999999999998845,-0.00000478352012578398
0.92500000000000004441,-0.00000326275630868622
0.92549999999999998934,-0.00000187500472748070
0.92600000000000004530,-0.00000184615089438012
0.92649999999999999023,-0.00000317761418955342
0.92700000000000004619,-0.00000437284052168252
0.92749999999999999112,-0.00000426399128627963
0.92800000000000004707,-0.00000352624806509994
0.92849999999999999201,-0.00000297060614684597
0.92900000000000004796,-0.00000220823903873679
0.92949999999999999289,-0.00000152608129155851
0.93000000000000004885,-0.00000203301715373527
0.93049999999999999378,-0.00000341701729666966
0.93100000000000004974,-0.00000395171673517325
0.93149999999999999467,-0.00000286240265268134
0.93200000000000005063,-0.00000142208989473147
0.93249999999999999556,-0.00000095526570476068
0.93300000000000005151,-0.00000122906487831642
0.93349999999999999645,-0.00000153782957568183
0.93400000000000005240,-0.00000170481644090614
0.93449999999999999734,-0.00000188678745871584
0.93500000000000005329,-0.00000205499418370891
0.93549999999999999822,-0.00000201844795810757
0.93600000000000005418,-0.00000196435030375142
0.93649999999999999911,-0.00000203270110432641
0.93700000000000005507,-0.00000179557628143812
0.93750000000000000000,-0.00000102757064723846
0.93799999999999994493,-0.00000038514446032423
0.93850000000000000089,-0.00000071199838203029
0.93899999999999994582,-0.00000180756364898116
0.93950000000000000178,-0.00000257605825026985
0.93999999999999994671,-0.00000240255167227588
0.94050000000000000266,-0.00000172055206348887
0.94099999999999994760,-0.00000128656574815977
0.94150000000000000355,-0.00000128425665479881
0.94199999999999994849,-0.00000130630348849081
0.94250000000000000444,-0.00000116383182557911
0.94299999999999994937,-0.00000130766954953287
0.94350000000000000533,-0.00000191160006579594
0.94399999999999995026,-0.00000237539529734931
0.94450000000000000622,-0.00000265007224697911
0.94499999999999995115,-0.00000338654990628129
0.94550000000000000711,-0.00000443879980593920
0.94599999999999995204,-0.00000513762233822490
0.94650000000000000799,-0.00000554770622329670
0.94699999999999995293,-0.00000616855277257855
0.94750000000000000888,-0.00000683673852108768
0.94799999999999995381,-0.00000689193484504358
0.94850000000000000977,-0.00000640578718957840
0.94899999999999995470,-0.00000584408553550020
0.94950000000000001066,-0.00000505905563841225
0.94999999999999995559,-0.00000432923889093217
0.95050000000000001155,-0.00000452435733677703
0.95099999999999995648,-0.00000529847466168576
0.95150000000000001243,-0.00000564077572562383
0.95199999999999995737,-0.00000555680526304059
0.95250000000000001332,-0.00000541656891073217
0.95299999999999995826,-0.00000521281344845193
0.95350000000000001421,-0.00000485434338770574
0.95399999999999995914,-0.00000408757887271349
0.95450000000000001510,-0.00000313459872813837
0.95499999999999996003,-0.00000325933615386020
0.95550000000000001599,-0.00000464625691165566
0.95599999999999996092,-0.00000538138738193084
0.95650000000000001688,-0.00000446020021627191
0.95699999999999996181,-0.00000347515515386476
0.95750000000000001776,-0.00000412479812439415
0.95799999999999996270,-0.00000552531901121256
0.95850000000000001865,-0.00000583475775783882
0.95899999999999996358,-0.00000543477699466166
0.95950000000000001954,-0.00000524306551596965
0.95999999999999996447,-0.00000433980721936678
0.96050000000000002043,-0.00000240975077758776
0.96099999999999996536,-0.00000088334570591542
0.96150000000000002132,-0.00000035465620840114
0.96199999999999996625,-0.00000022253109932535
0.96250000000000002220,-0.00000036591092111848
0.96299999999999996714,-0.00000113598036932672
0.96350000000000002309,-0.00000270422333414899
0.96399999999999996803,-0.00000482530776935164
0.96450000000000002398,-0.00000667855465508183
0.96499999999999996891,-0.00000746701334719546
0.96550000000000002487,-0.00000712232031219173
0.96599999999999996980,-0.00000610665119893383
0.96650000000000002576,-0.00000532257354279864
0.96699999999999997069,-0.00000559760928808828
0.96750000000000002665,-0.00000612814028499997
0.96799999999999997158,-0.00000562717013963265
0.96850000000000002753,-0.00000501743761560647
0.96899999999999997247,-0.00000547253648619517
0.96950000000000002842,-0.00000583530390940723
0.96999999999999997335,-0.00000484833662994788
0.97050000000000002931,-0.00000316584282700205
0.97099999999999997424,-0.00000220377137338801
0.97150000000000003020,-0.00000259569492300216
0.97199999999999997513,-0.00000369172494174563
0.97250000000000003109,-0.00000433003697253298
0.97299999999999997602,-0.00000398011025026790
0.97350000000000003197,-0.00000298008944810135
0.97399999999999997691,-0.00000243882368522463
0.97450000000000003286,-0.00000306116771753295
0.97499999999999997780,-0.00000369873691852263
0.97550000000000003375,-0.00000337071242029197
0.97599999999999997868,-0.00000302957255371439
0.97650000000000003464,-0.00000343385204359947
0.97699999999999997957,-0.00000419613934354857
0.97750000000000003553,-0.00000492755862069316
0.97799999999999998046,-0.00000534347145730862
0.97850000000000003642,-0.00000510589188706945
0.97899999999999998135,-0.00000432966589869466
0.97950000000000003730,-0.00000373987381863117
0.97999999999999998224,-0.00000380304618374794
0.98050000000000003819,-0.00000413906536778086
0.98099999999999998312,-0.00000438777988165384
0.98150000000000003908,-0.00000457686792287859
0.98199999999999998401,-0.00000427957002102630
0.98250000000000003997,-0.00000281293478110456
0.98299999999999998490,-0.00000054007921335142
0.98350000000000004086,0.00000094058884769765
0.98399999999999998579,0.00000069936038471496
0.98450000000000004174,-0.00000042536740352261
0.98499999999999998668,-0.00000166597487805120
0.98550000000000004263,-0.00000303276601698599
0.98599999999999998757,-0.00000401140050598769
0.98650000000000004352,-0.00000431789658250636
0.98699999999999998845,-0.00000477876301374636
0.98750000000000004441,-0.00000571244981983909
0.98799999999999998934,-0.00000645630552753573
0.98850000000000004530,-0.00000674257171340287
0.98899999999999999023,-0.00000661486228636932
0.98950000000000004619,-0.00000595372648604098
0.98999999999999999112,-0.00000520094090461498
0.99050000000000004707,-0.00000526424264535308
0.99099999999999999201,-0.00000612782878306461
0.99150000000000004796,-0.00000654469386063283
0.99199999999999999289,-0.00000607681158726336
0.99250000000000004885,-0.00000560553780815098
0.99299999999999999378,-0.00000476475543109700
0.99350000000000004974,-0.00000272303532256046
0.99399999999999999467,-0.00000091948328417857
0.99450000000000005063,-0.00000081656105521688
0.99499999999999999556,-0.00000164837115335104
0.99550000000000005151,-0.00000236509322348866
0.99599999999999999645,-0.00000277081062449724
0.99650000000000005240,-0.00000282025712294853
0.99699999999999999734,-0.00000257761871580442
0.99750000000000005329,-0.00000271937392426480
0.99799999999999999822,-0.00000394448852603091
0.99850000000000005418,-0.00000540266455573146
0.99899999999999999911,-0.00000559059844817966
0.99950000000000005507,-0.00000480395146951196
1.00000000000000000000,-0.00000430727277489495
1.00049999999999994493,-0.00000429850524596986
1.00099999999999988987,-0.00000425072266807547
1.00150000000000005684,-0.00000410846860177116
1.00200000000000000178,-0.00000438487631981843
1.00249999999999994671,-0.00000504619765706593
1.00299999999999989164,-0.00000529259705217555
1.00350000000000005862,-0.00000491464106744388
1.00400000000000000355,-0.00000470397435492487
1.00449999999999994849,-0.00000484993597638095
1.00499999999999989342,-0.00000404396178055322
1.00550000000000006040,-0.00000206833237825776
1.00600000000000000533,-0.00000106001994026883
1.00649999999999995026,-0.00000191240860658581
1.00699999999999989519,-0.00000322597020385729
1.00750000000000006217,-0.00000416322700402816
1.00800000000000000711,-0.00000467824384031701
1.00849999999999995204,-0.00000450143306807149
1.00899999999999989697,-0.00000388863372791093
1.00950000000000006395,-0.00000403068497689674
1.01000000000000000888,-0.00000544950762559893
1.01049999999999995381,-0.00000653762890578946
1.01099999999999989875,-0.00000611287487117806
1.01150000000000006573,-0.00000576539559915545
1.01200000000000001066,-0.00000656407701171702
1.01249999999999995559,-0.00000713851022737799
1.01299999999999990052,-0.00000659452916806913
1.01350000000000006750,-0.00000580243022341165
1.01400000000000001243,-0.00000554692678633728
1.01449999999999995737,-0.00000497163136969903
1.01499999999999990230,-0.00000329534213960869
1.01550000000000006928,-0.00000185799513019447
1.01600000000000001421,-0.00000184460634500283
1.01649999999999995914,-0.00000251733399636578
1.01699999999999990408,-0.00000305303251479927
1.01750000000000007105,-0.00000325888595398283
1.01800000000000001599,-0.00000295141262540710
1.01849999999999996092,-0.00000231770673053688
1.01899999999999990585,-0.00000211786891668453
1.01950000000000007283,-0.00000272661281996989
1.02000000000000001776,-0.00000331013507093303
1.02049999999999996270,-0.00000309947540699795
1.02099999999999990763,-0.00000274120293397573
1.02150000000000007461,-0.00000279511459666537
1.02200000000000001954,-0.00000249776599048346
1.02249999999999996447,-0.00000115456509774958
1.02299999999999990941,0.00000052796622185269
1.02350000000000007638,0.00000127057774079731
1.02400000000000002132,0.00000104588264093763
1.02449999999999996625,0.00000076685034855473
1.02499999999999991118,0.00000076741736165786
1.02550000000000007816,0.00000110464907265850
1.02600000000000002309,0.00000140842473683733
1.02649999999999996803,0.00000037523659557337
1.02699999999999991296,-0.00000188617354979215
1.02750000000000007994,-0.00000348986441167654
1.02800000000000002487,-0.00000403615331379115
1.02849999999999996980,-0.00000454028167951037
1.02899999999999991473,-0.00000531074510945473
1.02950000000000008171,-0.00000603511170993443
1.03000000000000002665,-0.00000623426694801310
1.03049999999999997158,-0.00000572201224713353
1.03099999999999991651,-0.00000517324588145129
1.03150000000000008349,-0.00000526473922946025
1.03200000000000002842,-0.00000557493922315189
1.03249999999999997335,-0.00000543556870979955
1.03299999999999991829,-0.00000500797978020273
1.03350000000000008527,-0.00000461115951111424
1.03400000000000003020,-0.00000419550588048878
1.03449999999999997513,-0.00000378694267055835
1.03499999999999992006,-0.00000352833603756153
1.03550000000000008704,-0.00000323914855471230
1.03600000000000003197,-0.00000250924335887248
1.03649999999999997691,-0.00000169677014127956
1.03699999999999992184,-0.00000194934659702994
1.03750000000000008882,-0.00000351484686689219
1.03800000000000003375,-0.00000517672560818028
1.03849999999999997868,-0.00000570821839573910
1.03899999999999992362,-0.00000516776799486252
1.03950000000000009059,-0.00000468550160803716
1.04000000000000003553,-0.00000511853704665555
1.04049999999999998046,-0.00000610928054811666
1.04099999999999992539,-0.00000665372272123932
1.04150000000000009237,-0.00000612558869761415
1.04200000000000003730,-0.00000458897193311714
1.04249999999999998224,-0.00000295342124445597
1.04299999999999992717,-0.00000253065832112043
1.04350000000000009415,-0.00000341315330842917
1.04400000000000003908,-0.00000420974265580298
1.04449999999999998401,-0.00000421515915149939
1.04499999999999992895,-0.00000393773916584905
1.04550000000000009592,-0.00000335445588461880
1.04600000000000004086,-0.00000231304056796944
1.04649999999999998579,-0.00000166783047461649
1.04699999999999993072,-0.00000199406645151612
1.04750000000000009770,-0.00000277620847555227
1.04800000000000004263,-0.00000317450167131028
1.04849999999999998757,-0.00000241602492678794
1.04899999999999993250,-0.00000091073945895914
1.04950000000000009948,-0.00000089062143615593
1.05000000000000004441,-0.00000319102855428355
1.05049999999999998934,-0.00000541987992619397
1.05099999999999993427,-0.00000573490206079441
1.05150000000000010125,-0.00000528745840711053
1.05200000000000004619,-0.00000582829352424596
1.05249999999999999112,-0.00000714841598892235
1.05299999999999993605,-0.00000809370249044150
1.05350000000000010303,-0.00000877363345352933
1.05400000000000004796,-0.00000922376602829900
1.05449999999999999289,-0.00000825445022201166
1.05499999999999993783,-0.00000640536245555268
1.05550000000000010481,-0.00000577630316911382
1.05600000000000004974,-0.00000610432243774994
1.05649999999999999467,-0.00000575863214180572
1.05699999999999993960,-0.00000466977280666470
1.05750000000000010658,-0.00000338609493155673
1.05800000000000005151,-0.00000227003170039097
1.05849999999999999645,-0.00000185809813046944
1.05899999999999994138,-0.00000204937259695726
1.05950000000000010836,-0.00000191025765161612
1.06000000000000005329,-0.00000094116097670849
1.06049999999999999822,0.00000017429275089853
1.06099999999999994316,0.00000042221881813020
1.06150000000000011013,-0.00000031407043366016
1.06200000000000005507,-0.00000128134786336886
1.06250000000000000000,-0.00000182877317911334
1.06299999999999994493,-0.00000204348771148943
1.06349999999999988987,-0.00000235059678743710
1.06400000000000005684,-0.00000268103303824319
1.06450000000000000178,-0.00000251868414125056
1.06499999999999994671,-0.00000199079681806325
1.06549999999999989164,-0.00000204998605113360
1.06600000000000005862,-0.00000290727894025622
1.06650000000000000355,-0.00000371618011740793
1.06699999999999994849,-0.00000406187973567285
1.06749999999999989342,-0.00000433273316957639
1.06800000000000006040,-0.00000488439991386258
1.06850000000000000533,-0.00000529641602042830
1.06899999999999995026,-0.00000495468248118414
1.06949999999999989519,-0.00000433935383625794
1.07000000000000006217,-0.00000416137390857330
1.07050000000000000711,-0.00000412150529882638
1.07099999999999995204,-0.00000377947594643047
1.07149999999999989697,-0.00000316911882691784
1.07200000000000006395,-0.00000246924469138321
1.07250000000000000888,-0.00000198578618437750
1.07299999999999995381,-0.00000192542074728408
1.07349999999999989875,-0.00000200880595002673
1.07400000000000006573,-0.00000184508689926588
1.07450000000000001066,-0.00000184717453066696
1.07499999999999995559,-0.00000289221452476340
1.07549999999999990052,-0.00000444704573965282
1.07600000000000006750,-0.00000510460722580319
1.07650000000000001243,-0.00000505609614265268
1.07699999999999995737,-0.00000498618283018004
1.07749999999999990230,-0.00000436743266618578
1.07800000000000006928,-0.00000316891851070977
1.07850000000000001421,-0.00000228666112889186
1.07899999999999995914,-0.00000193228538591939
1.07949999999999990408,-0.00000173793057456351
1.08000000000000007105,-0.00000157702618253097
1.08050000000000001599,-0.00000149749234878982
1.08099999999999996092,-0.00000189141860573727
1.08149999999999990585,-0.00000340021642841748
1.08200000000000007283,-0.00000524982806382468
1.08250000000000001776,-0.00000565118534723297
1.08299999999999996270,-0.00000487476654598140
1.08349999999999990763,-0.00000452475342171965
1.08400000000000007461,-0.00000491538366986788
1.08450000000000001954,-0.00000569856547372183
1.08499999999999996447,-0.00000630449358141050
1.08549999999999990941,-0.00000591198113397695
1.08600000000000007638,-0.00000490091542815208
1.08650000000000002132,-0.00000443113185610855
1.08699999999999996625,-0.00000458606518805027
1.08749999999999991118,-0.00000462195248474018
1.08800000000000007816,-0.00000423511482949834
1.08850000000000002309,-0.00000376464026885515
1.08899999999999996803,-0.00000356582222593715
1.08949999999999991296,-0.00000382145844923798
1.09000000000000007994,-0.00000462284060631646
1.09050000000000002487,-0.00000514700332132634
1.09099999999999996980,-0.00000430704494647216
1.09149999999999991473,-0.00000312249676426291
1.09200000000000008171,-0.00000331212027049332
1.09250000000000002665,-0.00000435195124737220
1.09299999999999997158,-0.00000505548223372898
1.09349999999999991651,-0.00000545179409527918
1.09400000000000008349,-0.00000574302111999714
1.09450000000000002842,-0.00000550697268408840
1.09499999999999997335,-0.00000406264871344320
1.09549999999999991829,-0.00000193740561371669
1.09600000000000008527,-0.00000106849017811328
1.09650000000000003020,-0.00000202258524950594
1.09699999999999997513,-0.00000332133458869066
1.09749999999999992006,-0.00000390989453080692
1.09800000000000008704,-0.00000380685514755896
1.09850000000000003197,-0.00000321182665175002
1.09899999999999997691,-0.00000256900989370479
1.09949999999999992184,-0.00000249680465458368
1.10000000000000008882,-0.00000279203254649474
1.10050000000000003375,-0.00000259160310633888
1.10099999999999997868,-0.00000191241247193830
1.10149999999999992362,-0.00000143076431413647
1.10200000000000009059,-0.00000125199574085855
1.10250000000000003553,-0.00000151107576584764
1.10299999999999998046,-0.00000262385151472699
1.10349999999999992539,-0.00000420387323174509
1.10400000000000009237,-0.00000531852538188105
1.10450000000000003730,-0.00000572335966353421
1.10499999999999998224,-0.00000600173370912671
1.10549999999999992717,-0.00000636347158433637
1.10600000000000009415,-0.00000620062883172068
1.10650000000000003908,-0.00000556415761820972
1.10699999999999998401,-0.00000507790718984324
1.10749999999999992895,-0.00000436195114161819
1.10800000000000009592,-0.00000341292616212741
1.10850000000000004086,-0.00000338838435709476
1.10899999999999998579,-0.00000381933068638318
1.10949999999999993072,-0.00000316180125992105
1.11000000000000009770,-0.00000216980515688192
1.11050000000000004263,-0.00000264430536844884
1.11099999999999998757,-0.00000434034882346168
1.11149999999999993250,-0.00000556285885977559
1.11200000000000009948,-0.00000557571456738515
1.11250000000000004441,-0.00000508227822137997
1.11299999999999998934,-0.00000480377320855041
1.11349999999999993427,-0.00000468834650746430
1.11400000000000010125,-0.00000438234428656870
1.11450000000000004619,-0.00000389652996091172
1.11499999999999999112,-0.00000386174724553712
1.11549999999999993605,-0.00000480232574773254
1.11600000000000010303,-0.00000593859112996142
1.11650000000000004796,-0.00000599460099692806
1.11699999999999999289,-0.00000510181416757405
1.11749999999999993783,-0.00000402176829084055
1.11800000000000010481,-0.00000298067175208416
1.11850000000000004974,-0.00000257023157246294
1.11899999999999999467,-0.00000300043097922753
1.11949999999999993960,-0.00000312273095914861
1.12000000000000010658,-0.00000266708889284928
1.12050000000000005151,-0.00000259955891124264
1.12099999999999999645,-0.00000276732839665783
1.12149999999999994138,-0.00000285935902866186
1.12200000000000010836,-0.00000359543855665834
1.12250000000000005329,-0.00000429472265750519
1.12299999999999999822,-0.00000362380933438544
1.12349999999999994316,-0.00000272212014351680
1.12400000000000011013,-0.00000281135453406023
1.12450000000000005507,-0.00000302461035062151
1.12500000000000000000,-0.00000300052488455549
1.12549999999999994493,-0.00000323370704791159
1.12599999999999988987,-0.00000356091413777904
1.12650000000000005684,-0.00000382514372176956
1.12700000000000000178,-0.00000417921364714857
1.12749999999999994671,-0.00000446757076133508
1.12799999999999989164,-0.00000453022903457168
1.12850000000000005862,-0.00000446889362137881
1.12900000000000000355,-0.00000438189454143867
1.12949999999999994849,-0.00000441397287431755
1.12999999999999989342,-0.00000460858473161352
1.13050000000000006040,-0.00000461571880805423
1.13100000000000000533,-0.00000433973582403269
1.13149999999999995026,-0.00000427287159254774
1.13199999999999989519,-0.00000461403305962449
1.13250000000000006217,-0.00000520887579114060
1.13300000000000000711,-0.00000619513457422727
1.13349999999999995204,-0.00000758885926188668
1.13399999999999989697,-0.00000885995359567460
1.13450000000000006395,-0.00000949848345044302
1.13500000000000000888,-0.00000910754260985414
1.13549999999999995381,-0.00000736205720386351
1.13599999999999989875,-0.00000542484394827625
1.13650000000000006573,-0.00000483453504784848
1.13700000000000001066,-0.00000449123763246462
1.13749999999999995559,-0.00000325579321724945
1.13799999999999990052,-0.00000232429306379345
1.13850000000000006750,-0.00000202210503630340
1.13900000000000001243,-0.00000162417336468934
1.13949999999999995737,-0.00000153136909375462
1.13999999999999990230,-0.00000209374707083043
1.14050000000000006928,-0.00000271353110292694
1.14100000000000001421,-0.00000291681203634653
1.14149999999999995914,-0.00000291245692096709
1.14199999999999990408,-0.00000329914018948330
1.14250000000000007105,-0.00000424884456151631
1.14300000000000001599,-0.00000477915864394163
1.14349999999999996092,-0.00000392669880966423
1.14399999999999990585,-0.00000243762247009727
1.14450000000000007283,-0.00000154510792071960
1.14500000000000001776,-0.00000133798835122434
1.14549999999999996270,-0.00000158727868893038
1.14599999999999990763,-0.00000210763118957402
1.14650000000000007461,-0.00000232726756621560
1.14700000000000001954,-0.00000210147209145362
1.14749999999999996447,-0.00000200529075300437
1.14799999999999990941,-0.00000233749324252130
1.14850000000000007638,-0.00000280515814665705
1.14900000000000002132,-0.00000324286565955845
1.14949999999999996625,-0.00000391893536288990
1.14999999999999991118,-0.00000455343206340331
1.15050000000000007816,-0.00000442212103735073
1.15100000000000002309,-0.00000424623567596427
1.15149999999999996803,-0.00000519213745064917
1.15199999999999991296,-0.00000644643159830594
1.15250000000000007994,-0.00000687971669321996
1.15300000000000002487,-0.00000642368695480400
1.15349999999999996980,-0.00000457469104730990
1.15399999999999991473,-0.00000171948647675890
1.15450000000000008171,-0.00000010996134847119
1.15500000000000002665,-0.00000032478692446603
1.15549999999999997158,-0.00000096624251000321
1.15599999999999991651,-0.00000184781390544231
1.15650000000000008349,-0.00000318112688546535
1.15700000000000002842,-0.00000407036714022979
1.15749999999999997335,-0.00000393241316487547
1.15799999999999991829,-0.00000302323633150081
1.15850000000000008527,-0.00000186407328328642
1.15900000000000003020,-0.00000127093937862810
1.15949999999999997513,-0.00000172835711964581
1.15999999999999992006,-0.00000280890185422322
1.16050000000000008704,-0.00000398956035496667
1.16100000000000003197,-0.00000484290876556770
1.16149999999999997691,-0.00000467475911136717
1.16199999999999992184,-0.00000366970652976306
1.16250000000000008882,-0.00000307097002405499
1.16300000000000003375,-0.00000334951300828834
1.16349999999999997868,-0.00000377574110643764
1.16399999999999992362,-0.00000363150979865168
1.16450000000000009059,-0.00000306314359477255
1.16500000000000003553,-0.00000252175345849537
1.16549999999999998046,-0.00000193989490071544
1.16599999999999992539,-0.00000171781971403107
1.16650000000000009237,-0.00000249041318056697
1.16700000000000003730,-0.00000326471808875795
1.16749999999999998224,-0.00000335246704707970
1.16799999999999992717,-0.00000392955462302780
1.16850000000000009415,-0.00000469280939796590
1.16900000000000003908,-0.00000384921986551490
1.16949999999999998401,-0.00000171351280187082
1.16999999999999992895,0.00000007355725983871
1.17050000000000009592,0.00000079559418963981
1.17100000000000004086,0.00000035887137528334
1.17149999999999998579,-0.00000099633291483769
1.17199999999999993072,-0.00000261340983342961
1.17250000000000009770,-0.00000386103693017503
1.17300000000000004263,-0.00000411707878811285
1.17349999999999998757,-0.00000302714488498168
1.17399999999999993250,-0.00000165411984198727
1.17450000000000009948,-0.00000160594254339230
1.17500000000000004441,-0.00000273697378361248
1.17549999999999998934,-0.00000389768638342503
1.17599999999999993427,-0.00000485890268464573
1.17650000000000010125,-0.00000554238795302808
1.17700000000000004619,-0.00000538758376933401
1.17749999999999999112,-0.00000459381135442527
1.17799999999999993605,-0.00000395099232264329
1.17850000000000010303,-0.00000363858998753130
1.17900000000000004796,-0.00000363063736585900
1.17949999999999999289,-0.00000429509600508027
1.17999999999999993783,-0.00000565987511436106
1.18050000000000010481,-0.00000684620908941724
1.18100000000000004974,-0.00000691955938236788
1.18149999999999999467,-0.00000590988474868936
1.18199999999999993960,-0.00000466961409983924
1.18250000000000010658,-0.00000406783919970621
1.18300000000000005151,-0.00000437630251326482
1.18349999999999999645,-0.00000519476589033729
1.18399999999999994138,-0.00000569981693843147
1.18450000000000010836,-0.00000513700706505915
1.18500000000000005329,-0.00000370944985661481
1.18549999999999999822,-0.00000251969504461158
1.18599999999999994316,-0.00000219923458644189
1.18650000000000011013,-0.00000262832600128604
1.18700000000000005507,-0.00000352464894604054
1.18750000000000000000,-0.00000413530733567313
1.18799999999999994493,-0.00000382630923922989
1.18849999999999988987,-0.00000325304222315026
1.18900000000000005684,-0.00000320521053254197
1.18950000000000000178,-0.00000349500874108344
1.18999999999999994671,-0.00000396395535062766
1.19049999999999989164,-0.00000475659908261150
1.19100000000000005862,-0.00000560875469091116
1.19150000000000000355,-0.00000595827941651805
1.19199999999999994849,-0.00000563172716283589
1.19249999999999989342,-0.00000511840153194498
1.19300000000000006040,-0.00000489180092699826
1.19350000000000000533,-0.00000493033712700708
1.19399999999999995026,-0.00000514753082825337
1.19449999999999989519,-0.00000545126340512070
1.19500000000000006217,-0.00000547826221009018
1.19550000000000000711,-0.00000493565585202305
1.19599999999999995204,-0.00000409475978813134
1.19649999999999989697,-0.00000350185882780352
1.19700000000000006395,-0.00000309073811877170
1.19750000000000000888,-0.00000233993114306941
1.19799999999999995381,-0.00000143540955832577
1.19849999999999989875,-0.00000132083960124874
1.19900000000000006573,-0.00000263141828327207
1.19950000000000001066,-0.00000496138682137826
1.19999999999999995559,-0.00000678259584674379
1.20049999999999990052,-0.00000665625429974170
1.20100000000000006750,-0.00000519919331054552
1.20150000000000001243,-0.00000420415926782880
1.20199999999999995737,-0.00000394922244595364
1.20249999999999990230,-0.00000365501182386652
1.20300000000000006928,-0.00000323269705404527
1.20350000000000001421,-0.00000309627239403198
1.20399999999999995914,-0.00000336165817316214
1.20449999999999990408,-0.00000360047761205351
1.20500000000000007105,-0.00000353666200680891
1.20550000000000001599,-0.00000343263172908337
1.20599999999999996092,-0.00000337931942340219
1.20649999999999990585,-0.00000331968158207019
1.20700000000000007283,-0.00000337365804625733
1.20750000000000001776,-0.00000342091379934573
1.20799999999999996270,-0.00000333468096869183
1.20849999999999990763,-0.00000336521770805120
1.20900000000000007461,-0.00000356694567926752
1.20950000000000001954,-0.00000385281828130246
1.20999999999999996447,-0.00000434971025242703
1.21049999999999990941,-0.00000459933607999119
1.21100000000000007638,-0.00000397667599827400
1.21150000000000002132,-0.00000316265959554585
1.21199999999999996625,-0.00000299609655485256
1.21249999999999991118,-0.00000334605829266366
1.21300000000000007816,-0.00000442541613665526
1.21350000000000002309,-0.00000608218215347733
1.21399999999999996803,-0.00000692449339112500
1.21449999999999991296,-0.00000710876884113532
1.21500000000000007994,-0.00000786694818089018
1.21550000000000002487,-0.00000814595750853186
1.21599999999999996980,-0.00000693001084073330
1.21649999999999991473,-0.00000577193532080855
1.21700000000000008171,-0.00000614988221059320
1.21750000000000002665,-0.00000729517159925308
1.21799999999999997158,-0.00000710846643414698
1.21849999999999991651,-0.00000515096553499461
1.21900000000000008349,-0.00000344489171766327
1.21950000000000002842,-0.00000328258943227411
1.21999999999999997335,-0.00000386615283787251
1.22049999999999991829,-0.00000401349961975939
1.22100000000000008527,-0.00000341665645464673
1.22150000000000003020,-0.00000290123398372089
1.22199999999999997513,-0.00000333525395035394
1.22249999999999992006,-0.00000394252583646448
1.22300000000000008704,-0.00000344121826856281
1.22350000000000003197,-0.00000227486430048884
1.22399999999999997691,-0.00000158281500262092
1.22449999999999992184,-0.00000154323413426027
1.22500000000000008882,-0.00000177088918462687
1.22550000000000003375,-0.00000177614879248722
1.22599999999999997868,-0.00000117335184768308
1.22649999999999992362,-0.00000015781216688993
1.22700000000000009059,0.00000069692953275080
1.22750000000000003553,0.00000106313279957249
1.22799999999999998046,0.00000093055854222257
1.22849999999999992539,0.00000032880339517760
1.22900000000000009237,-0.00000068589753254855
1.22950000000000003730,-0.00000169353825185681
1.22999999999999998224,-0.00000228100975618872
1.23049999999999992717,-0.00000279660639534995
1.23100000000000009415,-0.00000338505265062850
1.23150000000000003908,-0.00000340614315064158
1.23199999999999998401,-0.00000306234687741380
1.23249999999999992895,-0.00000302342436953040
1.23300000000000009592,-0.00000279285313808941
1.23350000000000004086,-0.00000227295777222025
1.23399999999999998579,-0.00000218422565012588
1.23449999999999993072,-0.00000176078356162179
1.23500000000000009770,-0.00000020029608549521
1.23550000000000004263,0.00000104884065876831
1.23599999999999998757,0.00000065706831264833
1.23649999999999993250,-0.00000072382556481898
1.23700000000000009948,-0.00000197204758478620
1.23750000000000004441,-0.00000278381321550114
1.23799999999999998934,-0.00000339235589308373
1.23849999999999993427,-0.00000394910011891625
1.23900000000000010125,-0.00000457897749583935
1.23950000000000004619,-0.00000534807168151019
1.23999999999999999112,-0.00000570458860238432
1.24049999999999993605,-0.00000487985016661696
1.24100000000000010303,-0.00000319709192808659
1.24150000000000004796,-0.00000226367387767823
1.24199999999999999289,-0.00000289944546238985
1.24249999999999993783,-0.00000371745773009025
1.24300000000000010481,-0.00000371323676517932
1.24350000000000004974,-0.00000385082057619002
1.24399999999999999467,-0.00000434933190263109
1.24449999999999993960,-0.00000434438379670610
1.24500000000000010658,-0.00000410644861403853
1.24550000000000005151,-0.00000420448259319528
1.24599999999999999645,-0.00000445365367340855
1.24649999999999994138,-0.00000481308234157041
1.24700000000000010836,-0.00000504496438225033
1.24750000000000005329,-0.00000463782544102287
1.24799999999999999822,-0.00000416785724155488
1.24849999999999994316,-0.00000459323428003700
1.24900000000000011013,-0.00000542124871572014
1.24950000000000005507,-0.00000527220072399359
1.25000000000000000000,-0.00000402595742343692
1.25049999999999994493,-0.00000311842654809880
1.25099999999999988987,-0.00000321363313560141
1.25150000000000005684,-0.00000400693897972815
1.25200000000000000178,-0.00000599518443777924
1.25249999999999994671,-0.00000842571989778662
1.25299999999999989164,-0.00000857549548527459
1.25350000000000005862,-0.00000631031980447005
1.25400000000000000355,-0.00000436084110333468
1.25449999999999994849,-0.00000406985418521799
1.25499999999999989342,-0.00000491977016281453
1.25550000000000006040,-0.00000597097368881805
1.25600000000000000533,-0.00000626574728812557
1.25649999999999995026,-0.00000606254116064520
1.25699999999999989519,-0.00000680150606058305
1.25750000000000006217,-0.00000832950536278076
1.25800000000000000711,-0.00000880561583471717
1.25849999999999995204,-0.00000793007075117202
1.25899999999999989697,-0.00000707370691088727
1.25950000000000006395,-0.00000677936259307899
1.26000000000000000888,-0.00000658483304505353
1.26049999999999995381,-0.00000643332532490604
1.26099999999999989875,-0.00000635933520243270
1.26150000000000006573,-0.00000555143833480543
1.26200000000000001066,-0.00000385972634830978
1.26249999999999995559,-0.00000259419107351277
1.26299999999999990052,-0.00000219097705667082
1.26350000000000006750,-0.00000209272070605948
1.26400000000000001243,-0.00000252479776463588
1.26449999999999995737,-0.00000328062014887109
1.26499999999999990230,-0.00000312454540107865
1.26550000000000006928,-0.00000184339307907067
1.26600000000000001421,-0.00000039552907082907
1.26649999999999995914,0.00000056837723150238
1.26699999999999990408,0.00000089329790853299
1.26750000000000007105,0.00000028642085680985
1.26800000000000001599,-0.00000142167664307635
1.26849999999999996092,-0.00000315560009767069
1.26899999999999990585,-0.00000346225920111465
1.26950000000000007283,-0.00000263440938397252
1.27000000000000001776,-0.00000183201188974635
1.27049999999999996270,-0.00000114761928671214
1.27099999999999990763,-0.00000035995179814563
1.27150000000000007461,-0.00000011979334146872
1.27200000000000001954,-0.00000105464641819708
1.27249999999999996447,-0.00000261296963799396
1.27299999999999990941,-0.00000359265618499194
1.27350000000000007638,-0.00000348113144355011
1.27400000000000002132,-0.00000316475006911787
1.27449999999999996625,-0.00000394731705455342
1.27499999999999991118,-0.00000581169751967536
1.27550000000000007816,-0.00000774358704802580
1.27600000000000002309,-0.00000922438266570680
1.27649999999999996803,-0.00001031699321174528
