Sample,RMS_µVolts,MedianFrequency_Hz,Linear_envelope_µVolts,Freq_Max,PSD_Max
20000.000000,8.730906,87.890625,363.323757,85.937500,2.149839
20250.000000,8.572495,105.468750,0.000000,0.000000,0.000000
20500.000000,8.879059,95.703125,0.000000,0.000000,0.000000
20750.000000,8.146541,76.171875,0.000000,0.000000,0.000000
21000.000000,5.561484,76.171875,0.000000,0.000000,0.000000
21250.000000,5.526277,93.750000,0.000000,0.000000,0.000000
21500.000000,10.194944,78.125000,0.000000,0.000000,0.000000
21750.000000,13.189345,101.562500,0.000000,0.000000,0.000000
22000.000000,14.494264,105.468750,0.000000,0.000000,0.000000
22250.000000,18.569072,93.750000,0.000000,0.000000,0.000000
22500.000000,21.025161,87.890625,0.000000,0.000000,0.000000
22750.000000,21.864755,91.796875,0.000000,0.000000,0.000000
23000.000000,23.536781,107.421875,0.000000,0.000000,0.000000
23250.000000,22.454642,97.656250,0.000000,0.000000,0.000000
23500.000000,22.580590,99.609375,0.000000,0.000000,0.000000
23750.000000,22.742731,109.375000,0.000000,0.000000,0.000000
24000.000000,20.315687,107.421875,0.000000,0.000000,0.000000
24250.000000,20.017310,89.843750,0.000000,0.000000,0.000000
24500.000000,20.849112,101.562500,0.000000,0.000000,0.000000
24750.000000,21.158249,115.234375,0.000000,0.000000,0.000000
25000.000000,20.359287,111.328125,0.000000,0.000000,0.000000
25250.000000,19.883822,121.093750,0.000000,0.000000,0.000000
25500.000000,22.586317,113.281250,0.000000,0.000000,0.000000
25750.000000,25.527269,70.312500,0.000000,0.000000,0.000000
26000.000000,24.051999,99.609375,0.000000,0.000000,0.000000
26250.000000,23.119208,97.656250,0.000000,0.000000,0.000000
26500.000000,21.366562,105.468750,0.000000,0.000000,0.000000
26750.000000,18.883169,105.468750,0.000000,0.000000,0.000000
27000.000000,20.706542,105.468750,0.000000,0.000000,0.000000
27250.000000,21.268005,76.171875,0.000000,0.000000,0.000000
27500.000000,24.141854,85.937500,0.000000,0.000000,0.000000
27750.000000,24.669455,83.984375,0.000000,0.000000,0.000000
28000.000000,18.124357,91.796875,0.000000,0.000000,0.000000
28250.000000,9.722524,66.406250,0.000000,0.000000,0.000000
28500.000000,4.915792,101.562500,0.000000,0.000000,0.000000
28750.000000,5.781277,91.796875,0.000000,0.000000,0.000000
29000.000000,5.343857,115.234375,0.000000,0.000000,0.000000
29250.000000,3.176062,87.890625,0.000000,0.000000,0.000000
29500.000000,2.844972,78.125000,0.000000,0.000000,0.000000
29750.000000,2.685548,97.656250,0.000000,0.000000,0.000000
30000.000000,6.084340,76.171875,0.000000,0.000000,0.000000
30250.000000,10.878347,91.796875,0.000000,0.000000,0.000000
30500.000000,11.704823,93.750000,0.000000,0.000000,0.000000
30750.000000,8.037677,101.562500,0.000000,0.000000,0.000000
31000.000000,4.649877,56.640625,0.000000,0.000000,0.000000
31250.000000,5.473533,89.843750,0.000000,0.000000,0.000000
31500.000000,5.846946,82.031250,0.000000,0.000000,0.000000
31750.000000,4.816265,74.218750,0.000000,0.000000,0.000000
32000.000000,3.995692,91.796875,0.000000,0.000000,0.000000
32250.000000,3.464609,87.890625,0.000000,0.000000,0.000000
32500.000000,2.858302,74.218750,0.000000,0.000000,0.000000
32750.000000,2.583801,91.796875,0.000000,0.000000,0.000000
33000.000000,2.357060,48.828125,0.000000,0.000000,0.000000
33250.000000,1.802989,115.234375,0.000000,0.000000,0.000000
33500.000000,1.853109,80.078125,0.000000,0.000000,0.000000
33750.000000,2.042962,97.656250,0.000000,0.000000,0.000000
34000.000000,2.179851,76.171875,0.000000,0.000000,0.000000
34250.000000,4.787972,82.031250,0.000000,0.000000,0.000000
34500.000000,8.525931,99.609375,0.000000,0.000000,0.000000
34750.000000,8.408915,109.375000,0.000000,0.000000,0.000000
35000.000000,7.830856,95.703125,0.000000,0.000000,0.000000
35250.000000,8.303700,91.796875,0.000000,0.000000,0.000000
35500.000000,8.608147,95.703125,0.000000,0.000000,0.000000
35750.000000,10.337357,85.937500,0.000000,0.000000,0.000000
36000.000000,10.290814,99.609375,0.000000,0.000000,0.000000
36250.000000,10.353011,115.234375,0.000000,0.000000,0.000000
36500.000000,10.612521,82.031250,0.000000,0.000000,0.000000
36750.000000,8.819849,93.750000,0.000000,0.000000,0.000000
37000.000000,9.222041,89.843750,0.000000,0.000000,0.000000
37250.000000,11.619351,113.281250,0.000000,0.000000,0.000000
37500.000000,13.723037,82.031250,0.000000,0.000000,0.000000
37750.000000,14.421679,89.843750,0.000000,0.000000,0.000000
38000.000000,13.218477,82.031250,0.000000,0.000000,0.000000
38250.000000,16.229584,99.609375,0.000000,0.000000,0.000000
38500.000000,17.945547,89.843750,0.000000,0.000000,0.000000
38750.000000,17.801861,80.078125,0.000000,0.000000,0.000000
39000.000000,24.093049,76.171875,0.000000,0.000000,0.000000
39250.000000,25.538379,95.703125,0.000000,0.000000,0.000000
39500.000000,22.461303,109.375000,0.000000,0.000000,0.000000
39750.000000,22.828140,111.328125,0.000000,0.000000,0.000000
40000.000000,23.426355,85.937500,0.000000,0.000000,0.000000
40250.000000,21.316534,95.703125,0.000000,0.000000,0.000000
40500.000000,21.539709,115.234375,0.000000,0.000000,0.000000
40750.000000,25.623575,87.890625,0.000000,0.000000,0.000000
41000.000000,28.197569,97.656250,0.000000,0.000000,0.000000
41250.000000,30.916858,85.937500,0.000000,0.000000,0.000000
41500.000000,26.679894,82.031250,0.000000,0.000000,0.000000
41750.000000,16.918641,99.609375,0.000000,0.000000,0.000000
42000.000000,13.218313,107.421875,0.000000,0.000000,0.000000
42250.000000,13.216604,87.890625,0.000000,0.000000,0.000000
42500.000000,13.339555,82.031250,0.000000,0.000000,0.000000
42750.000000,12.220764,89.843750,0.000000,0.000000,0.000000
43000.000000,10.951968,134.765625,0.000000,0.000000,0.000000
43250.000000,10.104049,91.796875,0.000000,0.000000,0.000000
43500.000000,9.668396,111.328125,0.000000,0.000000,0.000000
43750.000000,8.930222,105.468750,0.000000,0.000000,0.000000
44000.000000,8.866962,115.234375,0.000000,0.000000,0.000000
44250.000000,10.771888,76.171875,0.000000,0.000000,0.000000
44500.000000,11.957198,74.218750,0.000000,0.000000,0.000000
44750.000000,10.094124,99.609375,0.000000,0.000000,0.000000
45000.000000,9.225467,97.656250,0.000000,0.000000,0.000000
45250.000000,9.261687,91.796875,0.000000,0.000000,0.000000
45500.000000,9.008661,80.078125,0.000000,0.000000,0.000000
45750.000000,12.891371,83.984375,0.000000,0.000000,0.000000
46000.000000,15.354000,103.515625,0.000000,0.000000,0.000000
46250.000000,15.926352,91.796875,0.000000,0.000000,0.000000
46500.000000,18.562550,85.937500,0.000000,0.000000,0.000000
46750.000000,20.102333,85.937500,0.000000,0.000000,0.000000
47000.000000,24.918291,82.031250,0.000000,0.000000,0.000000
47250.000000,25.189112,80.078125,0.000000,0.000000,0.000000
47500.000000,16.413165,97.656250,0.000000,0.000000,0.000000
47750.000000,11.586230,80.078125,0.000000,0.000000,0.000000
48000.000000,10.677514,101.562500,0.000000,0.000000,0.000000
48250.000000,6.880453,89.843750,0.000000,0.000000,0.000000
48500.000000,7.077192,54.687500,0.000000,0.000000,0.000000
48750.000000,13.628371,89.843750,0.000000,0.000000,0.000000
49000.000000,17.678803,83.984375,0.000000,0.000000,0.000000
49250.000000,16.294841,82.031250,0.000000,0.000000,0.000000
49500.000000,17.935170,83.984375,0.000000,0.000000,0.000000
49750.000000,24.084381,83.984375,0.000000,0.000000,0.000000
50000.000000,24.845580,66.406250,0.000000,0.000000,0.000000
50250.000000,21.508706,95.703125,0.000000,0.000000,0.000000
50500.000000,18.619362,87.890625,0.000000,0.000000,0.000000
50750.000000,18.033931,82.031250,0.000000,0.000000,0.000000
51000.000000,19.290128,85.937500,0.000000,0.000000,0.000000
51250.000000,16.621223,82.031250,0.000000,0.000000,0.000000
51500.000000,10.637666,72.265625,0.000000,0.000000,0.000000
51750.000000,9.031936,103.515625,0.000000,0.000000,0.000000
52000.000000,10.057168,128.906250,0.000000,0.000000,0.000000
52250.000000,9.119876,117.187500,0.000000,0.000000,0.000000
52500.000000,9.730323,99.609375,0.000000,0.000000,0.000000
52750.000000,9.799257,89.843750,0.000000,0.000000,0.000000
53000.000000,8.147906,111.328125,0.000000,0.000000,0.000000
53250.000000,9.543620,111.328125,0.000000,0.000000,0.000000
53500.000000,11.578851,85.937500,0.000000,0.000000,0.000000
53750.000000,11.741711,99.609375,0.000000,0.000000,0.000000
54000.000000,10.790156,113.281250,0.000000,0.000000,0.000000
54250.000000,9.627649,107.421875,0.000000,0.000000,0.000000
54500.000000,8.580532,95.703125,0.000000,0.000000,0.000000
54750.000000,10.226849,85.937500,0.000000,0.000000,0.000000
55000.000000,11.182781,99.609375,0.000000,0.000000,0.000000
55250.000000,10.430069,103.515625,0.000000,0.000000,0.000000
55500.000000,10.966662,126.953125,0.000000,0.000000,0.000000
55750.000000,11.872203,123.046875,0.000000,0.000000,0.000000
56000.000000,12.212737,101.562500,0.000000,0.000000,0.000000
56250.000000,10.700957,93.750000,0.000000,0.000000,0.000000
56500.000000,8.785438,113.281250,0.000000,0.000000,0.000000
56750.000000,8.236721,80.078125,0.000000,0.000000,0.000000
57000.000000,8.117750,76.171875,0.000000,0.000000,0.000000
57250.000000,7.307081,87.890625,0.000000,0.000000,0.000000
57500.000000,5.801533,101.562500,0.000000,0.000000,0.000000
57750.000000,5.081599,107.421875,0.000000,0.000000,0.000000
58000.000000,7.495949,105.468750,0.000000,0.000000,0.000000
58250.000000,7.968829,89.843750,0.000000,0.000000,0.000000
58500.000000,8.243089,91.796875,0.000000,0.000000,0.000000
58750.000000,10.406015,99.609375,0.000000,0.000000,0.000000
59000.000000,11.188850,95.703125,0.000000,0.000000,0.000000
59250.000000,11.982647,87.890625,0.000000,0.000000,0.000000
59500.000000,11.167385,80.078125,0.000000,0.000000,0.000000
59750.000000,11.464404,74.218750,0.000000,0.000000,0.000000
60000.000000,12.999751,85.937500,0.000000,0.000000,0.000000
60250.000000,11.533214,60.546875,0.000000,0.000000,0.000000
60500.000000,11.314030,80.078125,0.000000,0.000000,0.000000
60750.000000,11.305205,78.125000,0.000000,0.000000,0.000000
61000.000000,9.190724,101.562500,0.000000,0.000000,0.000000
61250.000000,11.686305,89.843750,0.000000,0.000000,0.000000
61500.000000,12.761606,103.515625,0.000000,0.000000,0.000000
61750.000000,12.422168,105.468750,0.000000,0.000000,0.000000
62000.000000,11.015507,89.843750,0.000000,0.000000,0.000000
62250.000000,7.153876,97.656250,0.000000,0.000000,0.000000
62500.000000,10.157529,85.937500,0.000000,0.000000,0.000000
62750.000000,10.627496,103.515625,0.000000,0.000000,0.000000
63000.000000,9.208570,68.359375,0.000000,0.000000,0.000000
63250.000000,11.280919,93.750000,0.000000,0.000000,0.000000
63500.000000,16.746339,76.171875,0.000000,0.000000,0.000000
63750.000000,20.980229,95.703125,0.000000,0.000000,0.000000
64000.000000,21.644131,107.421875,0.000000,0.000000,0.000000
64250.000000,20.392452,72.265625,0.000000,0.000000,0.000000
64500.000000,18.553306,87.890625,0.000000,0.000000,0.000000
64750.000000,20.054698,74.218750,0.000000,0.000000,0.000000
65000.000000,19.783491,91.796875,0.000000,0.000000,0.000000
65250.000000,19.993420,83.984375,0.000000,0.000000,0.000000
65500.000000,25.091667,58.593750,0.000000,0.000000,0.000000
65750.000000,24.357533,66.406250,0.000000,0.000000,0.000000
66000.000000,18.718201,60.546875,0.000000,0.000000,0.000000
66250.000000,25.338390,93.750000,0.000000,0.000000,0.000000
66500.000000,34.727089,89.843750,0.000000,0.000000,0.000000
66750.000000,31.261425,80.078125,0.000000,0.000000,0.000000
67000.000000,24.711289,83.984375,0.000000,0.000000,0.000000
67250.000000,29.942125,78.125000,0.000000,0.000000,0.000000
67500.000000,28.053773,85.937500,0.000000,0.000000,0.000000
67750.000000,23.200762,82.031250,0.000000,0.000000,0.000000
68000.000000,20.132439,103.515625,0.000000,0.000000,0.000000
68250.000000,14.446139,91.796875,0.000000,0.000000,0.000000
68500.000000,12.905764,83.984375,0.000000,0.000000,0.000000
68750.000000,8.809874,93.750000,0.000000,0.000000,0.000000
69000.000000,7.203569,91.796875,0.000000,0.000000,0.000000
69250.000000,6.744829,89.843750,0.000000,0.000000,0.000000
69500.000000,6.266841,97.656250,0.000000,0.000000,0.000000
69750.000000,5.467198,80.078125,0.000000,0.000000,0.000000
70000.000000,5.417057,70.312500,0.000000,0.000000,0.000000
70250.000000,5.436441,93.750000,0.000000,0.000000,0.000000
70500.000000,4.652593,93.750000,0.000000,0.000000,0.000000
70750.000000,3.883338,83.984375,0.000000,0.000000,0.000000
71000.000000,3.320100,93.750000,0.000000,0.000000,0.000000
71250.000000,3.341343,95.703125,0.000000,0.000000,0.000000
71500.000000,3.568367,99.609375,0.000000,0.000000,0.000000
71750.000000,3.682378,85.937500,0.000000,0.000000,0.000000
72000.000000,6.325508,83.984375,0.000000,0.000000,0.000000
72250.000000,11.737594,82.031250,0.000000,0.000000,0.000000
72500.000000,11.784012,70.312500,0.000000,0.000000,0.000000
72750.000000,12.663403,91.796875,0.000000,0.000000,0.000000
73000.000000,14.697996,82.031250,0.000000,0.000000,0.000000
73250.000000,14.904970,95.703125,0.000000,0.000000,0.000000
73500.000000,15.172680,93.750000,0.000000,0.000000,0.000000
73750.000000,14.536488,80.078125,0.000000,0.000000,0.000000
74000.000000,14.739758,83.984375,0.000000,0.000000,0.000000
74250.000000,17.405088,89.843750,0.000000,0.000000,0.000000
74500.000000,19.777476,101.562500,0.000000,0.000000,0.000000
74750.000000,21.932486,95.703125,0.000000,0.000000,0.000000
75000.000000,21.134395,82.031250,0.000000,0.000000,0.000000
75250.000000,17.066964,107.421875,0.000000,0.000000,0.000000
75500.000000,18.512262,91.796875,0.000000,0.000000,0.000000
75750.000000,22.805591,105.468750,0.000000,0.000000,0.000000
76000.000000,23.120543,101.562500,0.000000,0.000000,0.000000
76250.000000,22.834742,121.093750,0.000000,0.000000,0.000000
76500.000000,26.393829,87.890625,0.000000,0.000000,0.000000
76750.000000,25.029425,83.984375,0.000000,0.000000,0.000000
77000.000000,21.450552,78.125000,0.000000,0.000000,0.000000
77250.000000,21.718749,89.843750,0.000000,0.000000,0.000000
77500.000000,21.398594,76.171875,0.000000,0.000000,0.000000
77750.000000,19.924620,82.031250,0.000000,0.000000,0.000000
78000.000000,18.432793,82.031250,0.000000,0.000000,0.000000
78250.000000,17.827119,80.078125,0.000000,0.000000,0.000000
78500.000000,15.124592,107.421875,0.000000,0.000000,0.000000
78750.000000,15.030994,80.078125,0.000000,0.000000,0.000000
79000.000000,19.711757,82.031250,0.000000,0.000000,0.000000
79250.000000,20.957456,83.984375,0.000000,0.000000,0.000000
79500.000000,18.592296,68.359375,0.000000,0.000000,0.000000
79750.000000,15.505638,76.171875,0.000000,0.000000,0.000000
80000.000000,12.375247,105.468750,0.000000,0.000000,0.000000
80250.000000,9.446929,103.515625,0.000000,0.000000,0.000000
80500.000000,7.745293,95.703125,0.000000,0.000000,0.000000
80750.000000,7.361054,91.796875,0.000000,0.000000,0.000000
81000.000000,9.490921,72.265625,0.000000,0.000000,0.000000
81250.000000,9.905005,109.375000,0.000000,0.000000,0.000000
81500.000000,8.754036,103.515625,0.000000,0.000000,0.000000
81750.000000,8.347476,80.078125,0.000000,0.000000,0.000000
82000.000000,7.056273,89.843750,0.000000,0.000000,0.000000
82250.000000,7.235966,105.468750,0.000000,0.000000,0.000000
82500.000000,8.756613,103.515625,0.000000,0.000000,0.000000
82750.000000,11.291010,105.468750,0.000000,0.000000,0.000000
83000.000000,11.239140,89.843750,0.000000,0.000000,0.000000
83250.000000,11.240386,95.703125,0.000000,0.000000,0.000000
83500.000000,12.023905,87.890625,0.000000,0.000000,0.000000
83750.000000,11.576740,78.125000,0.000000,0.000000,0.000000
84000.000000,14.281381,74.218750,0.000000,0.000000,0.000000
84250.000000,14.835906,83.984375,0.000000,0.000000,0.000000
84500.000000,14.457352,85.937500,0.000000,0.000000,0.000000
84750.000000,16.765113,70.312500,0.000000,0.000000,0.000000
85000.000000,17.163175,80.078125,0.000000,0.000000,0.000000
85250.000000,14.863392,83.984375,0.000000,0.000000,0.000000
85500.000000,13.062565,78.125000,0.000000,0.000000,0.000000
85750.000000,11.696360,87.890625,0.000000,0.000000,0.000000
86000.000000,12.024644,78.125000,0.000000,0.000000,0.000000
86250.000000,14.863379,99.609375,0.000000,0.000000,0.000000
86500.000000,14.951577,91.796875,0.000000,0.000000,0.000000
86750.000000,12.443364,93.750000,0.000000,0.000000,0.000000
87000.000000,10.793498,105.468750,0.000000,0.000000,0.000000
87250.000000,9.376629,107.421875,0.000000,0.000000,0.000000
87500.000000,7.959541,83.984375,0.000000,0.000000,0.000000
87750.000000,7.006205,83.984375,0.000000,0.000000,0.000000
88000.000000,6.210934,89.843750,0.000000,0.000000,0.000000
88250.000000,6.206267,82.031250,0.000000,0.000000,0.000000
88500.000000,7.242487,105.468750,0.000000,0.000000,0.000000
88750.000000,8.336316,87.890625,0.000000,0.000000,0.000000
89000.000000,7.283725,87.890625,0.000000,0.000000,0.000000
89250.000000,6.600370,74.218750,0.000000,0.000000,0.000000
